Corrected time (s)	WE(1).Current (A)	Time (s)	WE(1).Potential (V)	Index
0	0.000126251220703125	15.7986609601122	0.79925537109375	1
9.99999997475243	9.4879150390625E-05	25.7986609348646	0.799560546875	2
19.9999999495049	8.37097167968751E-05	35.7986609096171	0.79986572265625	3
29.9999999242573	7.8765869140625E-05	45.7986608843695	0.79925537109375	4
39.9999998990097	7.5836181640625E-05	55.7986608591219	0.79925537109375	5
49.9999998737621	7.525634765625E-05	65.7986608338744	0.79925537109375	6
59.9999998485146	0.00068603515625	75.7986608086268	0.799560546875	7
69.999999823267	0.00062530517578125	85.7986607833792	0.799560546875	8
79.9999997980194	0.000689697265625	95.7986607581316	0.799560546875	9
89.9999997727718	0.0006536865234375	105.798660732884	0.79986572265625	10
99.9999997475243	0.00063690185546875	115.798660707636	0.799560546875	11
109.999999722277	0.0006268310546875	125.798660682389	0.79864501953125	12
119.999999697029	0.00057708740234375	135.798660657141	0.79986572265625	13
129.999999671782	0.0005133056640625	145.798660631894	0.79925537109375	14
139.999999646534	0.0005615234375	155.798660606646	0.8001708984375	15
149.999999621286	0.00049957275390625	165.798660581399	0.79986572265625	16
159.999999596039	0.000572509765625	175.798660556151	0.79986572265625	17
169.999999570791	0.000501708984375	185.798660530903	0.79925537109375	18
179.999999545544	0.0005322265625	195.798660505656	0.799560546875	19
189.999999520296	0.000439910888671875	205.798660480408	0.79986572265625	20
199.999999495049	0.000482269287109375	215.798660455161	0.79986572265625	21
209.999999469801	0.00041595458984375	225.798660429913	0.8001708984375	22
219.999999444553	0.000486358642578125	235.798660404666	0.799560546875	23
229.999999419306	0.000454193115234375	245.798660379418	0.8001708984375	24
239.999999394058	0.000409210205078125	255.79866035417	0.79925537109375	25
249.999999368811	0.000378814697265625	265.798660328923	0.79986572265625	26
259.999999343563	0.000382049560546875	275.798660303675	0.79925537109375	27
269.999999318316	0.000426910400390625	285.798660278428	0.79925537109375	28
279.999999293068	0.000370941162109375	295.79866025318	0.7989501953125	29
289.99999926782	0.000376739501953125	305.798660227933	0.799560546875	30
299.999999242573	0.0003955078125	315.798660202685	0.799560546875	31
309.999999217325	0.000338531494140625	325.798660177437	0.79986572265625	32
319.999999192078	0.00041680908203125	335.79866015219	0.79833984375	33
329.99999916683	0.000341339111328125	345.798660126942	0.799560546875	34
339.999999141583	0.00035015869140625	355.798660101695	0.79986572265625	35
349.999999116335	0.00032257080078125	365.798660076447	0.799560546875	36
359.999999091087	0.000298736572265625	375.7986600512	0.79986572265625	37
369.99999906584	0.00034014892578125	385.798660025952	0.799560546875	38
379.999999040592	0.000308837890625	395.798660000704	0.799560546875	39
389.999999015345	0.00029193115234375	405.798659975457	0.799560546875	40
399.999998990097	0.000273712158203125	415.798659950209	0.79986572265625	41
409.99999896485	0.000288330078125	425.798659924962	0.79986572265625	42
419.999998939602	0.00026788330078125	435.798659899714	0.799560546875	43
429.999998914354	0.0002618408203125	445.798659874467	0.799560546875	44
439.999998889107	0.0002491455078125	455.798659849219	0.79986572265625	45
449.999998863859	0.000275848388671875	465.798659823971	0.80047607421875	46
459.999998838612	0.00024395751953125	475.798659798724	0.799560546875	47
469.999998813364	0.00026397705078125	485.798659773476	0.799560546875	48
479.999998788117	0.0002437744140625	495.798659748229	0.799560546875	49
489.999998762869	0.000232330322265625	505.798659722981	0.79986572265625	50
499.999998737621	0.0002271728515625	515.798659697734	0.799560546875	51
509.999998712374	0.000253082275390625	525.798659672486	0.79986572265625	52
519.999998687126	0.00021337890625	535.798659647238	0.799560546875	53
529.999998661879	0.00022003173828125	545.798659621991	0.80047607421875	54
539.999998636631	0.000228424072265625	555.798659596743	0.799560546875	55
549.999998611383	0.000212371826171875	565.798659571496	0.799560546875	56
559.999998586136	9.8236083984375E-05	575.798659546248	0.799560546875	57
569.999998560888	3.80340576171875E-05	585.798659521001	0.79986572265625	58
579.999998535641	2.89825439453125E-05	595.798659495753	0.799560546875	59
589.999998510393	2.56378173828125E-05	605.798659470505	0.8001708984375	60
599.999998485146	2.47833251953125E-05	615.798659445258	0.799560546875	61
609.999998459898	2.5177001953125E-05	625.79865942001	0.799560546875	62
619.99999843465	2.37640380859375E-05	635.798659394763	0.799560546875	63
629.999998409403	2.31201171875E-05	645.798659369515	0.80047607421875	64
639.999998384155	2.2918701171875E-05	655.798659344268	0.799560546875	65
649.999998358908	2.23052978515625E-05	665.79865931902	0.799560546875	66
659.99999833366	2.29736328125E-05	675.798659293772	0.799560546875	67
669.999998308413	2.29248046875E-05	685.798659268525	0.799560546875	68
679.999998283165	2.2467041015625E-05	695.798659243277	0.799560546875	69
689.999998257917	2.225341796875E-05	705.79865921803	0.79986572265625	70
699.99999823267	2.247314453125E-05	715.798659192782	0.79986572265625	71
709.999998207422	2.33245849609375E-05	725.798659167535	0.7989501953125	72
719.999998182175	2.403564453125E-05	735.798659142287	0.7989501953125	73
729.999998156927	2.3492431640625E-05	745.798659117039	0.79925537109375	74
739.99999813168	2.34283447265625E-05	755.798659091792	0.79986572265625	75
749.999998106432	2.3406982421875E-05	765.798659066544	0.799560546875	76
759.999998081184	2.40936279296875E-05	775.798659041297	0.799560546875	77
769.999998055937	2.4127197265625E-05	785.798659016049	0.8001708984375	78
779.999998030689	2.359619140625E-05	795.798658990802	0.799560546875	79
789.999998005442	2.35931396484375E-05	805.798658965554	0.799560546875	80
799.999997980194	2.28363037109375E-05	815.798658940306	0.79925537109375	81
809.999997954947	2.28485107421875E-05	825.798658915059	0.79925537109375	82
819.999997929699	2.166748046875E-05	835.798658889811	0.79925537109375	83
829.999997904451	2.1844482421875E-05	845.798658864564	0.79986572265625	84
839.999997879204	2.20428466796875E-05	855.798658839316	0.80047607421875	85
849.999997853956	2.2283935546875E-05	865.798658814069	0.79986572265625	86
859.999997828709	2.2064208984375E-05	875.798658788821	0.79925537109375	87
869.999997803461	2.20550537109375E-05	885.798658763573	0.79986572265625	88
879.999997778214	2.2576904296875E-05	895.798658738326	0.79986572265625	89
889.999997752966	2.19085693359375E-05	905.798658713078	0.79986572265625	90
899.999997727718	2.29949951171875E-05	915.798658687831	0.799560546875	91
909.999997702471	2.33978271484375E-05	925.798658662583	0.799560546875	92
919.999997677223	2.31964111328125E-05	935.798658637336	0.79986572265625	93
929.999997651976	2.2381591796875E-05	945.798658612088	0.799560546875	94
939.999997626728	2.2509765625E-05	955.79865858684	0.79986572265625	95
949.999997601481	2.3052978515625E-05	965.798658561593	0.79986572265625	96
959.999997576233	2.25128173828125E-05	975.798658536345	0.799560546875	97
969.999997550985	2.3211669921875E-05	985.798658511098	0.799560546875	98
979.999997525738	2.38250732421875E-05	995.79865848585	0.79925537109375	99
989.99999750049	2.25250244140625E-05	1005.7986584606	0.799560546875	100
999.999997475243	2.27142333984375E-05	1015.79865843535	0.79925537109375	101
1009.99999745	2.2369384765625E-05	1025.79865841011	0.799560546875	102
1019.99999742475	2.23175048828125E-05	1035.79865838486	0.79925537109375	103
1029.9999973995	2.3046875E-05	1045.79865835961	0.79986572265625	104
1039.99999737425	2.20794677734375E-05	1055.79865833436	0.799560546875	105
1049.999997349	2.14141845703125E-05	1065.79865830912	0.799560546875	106
1059.99999732376	2.2113037109375E-05	1075.79865828387	0.8001708984375	107
1069.99999729851	2.14691162109375E-05	1085.79865825862	0.799560546875	108
1079.99999727326	2.19940185546875E-05	1095.79865823337	0.799560546875	109
1089.99999724801	2.08282470703125E-05	1105.79865820813	0.79986572265625	110
1099.99999722277	2.16583251953125E-05	1115.79865818288	0.79986572265625	111
1109.99999719752	2.15728759765625E-05	1125.79865815763	0.79986572265625	112
1119.99999717227	2.0843505859375E-05	1135.79865813238	0.79986572265625	113
1129.99999714702	2.19024658203125E-05	1145.79865810714	0.799560546875	114
1139.99999712178	2.1575927734375E-05	1155.79865808189	0.799560546875	115
1149.99999709653	2.10113525390625E-05	1165.79865805664	0.7989501953125	116
1159.99999707128	0.000191162109375	1175.79865803139	0.79925537109375	117
1169.99999704603	0.000226409912109375	1185.79865800615	0.7989501953125	118
1179.99999702079	0.000193389892578125	1195.7986579809	0.799560546875	119
1189.99999699554	0.0001854248046875	1205.79865795565	0.7989501953125	120
1199.99999697029	0.00018817138671875	1215.7986579304	0.799560546875	121
1209.99999694504	0.000178985595703125	1225.79865790516	0.8001708984375	122
1219.9999969198	0.00015789794921875	1235.79865787991	0.8001708984375	123
1229.99999689455	0.000193115234375	1245.79865785466	0.7989501953125	124
1239.9999968693	0.00019488525390625	1255.79865782941	0.79925537109375	125
1249.99999684405	0.000170654296875	1265.79865780417	0.7989501953125	126
1259.99999681881	0.000175933837890625	1275.79865777892	0.79925537109375	127
1269.99999679356	0.000165496826171875	1285.79865775367	0.79986572265625	128
1279.99999676831	0.000155364990234375	1295.79865772842	0.8001708984375	129
1289.99999674306	0.000162933349609375	1305.79865770318	0.799560546875	130
1299.99999671782	0.000151947021484375	1315.79865767793	0.799560546875	131
1309.99999669257	0.00015234375	1325.79865765268	0.79925537109375	132
1319.99999666732	0.000141632080078125	1335.79865762743	0.79986572265625	133
1329.99999664207	0.000161529541015625	1345.79865760218	0.79925537109375	134
1339.99999661683	0.000141326904296875	1355.79865757694	0.79925537109375	135
1349.99999659158	0.00014105224609375	1365.79865755169	0.79986572265625	136
1359.99999656633	0.0001455078125	1375.79865752644	0.79925537109375	137
1369.99999654108	0.000132293701171875	1385.79865750119	0.799560546875	138
1379.99999651583	0.000152801513671875	1395.79865747595	0.79925537109375	139
1389.99999649059	0.000143707275390625	1405.7986574507	0.79925537109375	140
1399.99999646534	0.00012939453125	1415.79865742545	0.8001708984375	141
1409.99999644009	0.000128509521484375	1425.7986574002	0.79986572265625	142
1419.99999641484	0.00012994384765625	1435.79865737496	0.799560546875	143
1429.9999963896	0.000121612548828125	1445.79865734971	0.79925537109375	144
1439.99999636435	0.0001260986328125	1455.79865732446	0.79986572265625	145
1449.9999963391	0.000134796142578125	1465.79865729921	0.79986572265625	146
1459.99999631385	0.000113311767578125	1475.79865727397	0.79925537109375	147
1469.99999628861	0.00011468505859375	1485.79865724872	0.799560546875	148
1479.99999626336	0.000120758056640625	1495.79865722347	0.79986572265625	149
1489.99999623811	0.0001151123046875	1505.79865719822	0.799560546875	150
1499.99999621286	0.00013079833984375	1515.79865717298	0.79986572265625	151
1509.99999618762	0.000114410400390625	1525.79865714773	0.79986572265625	152
1519.99999616237	0.0001015625	1535.79865712248	0.79986572265625	153
1529.99999613712	0.000106475830078125	1545.79865709723	0.799560546875	154
1539.99999611187	0.000112152099609375	1555.79865707199	0.79925537109375	155
1549.99999608663	9.8297119140625E-05	1565.79865704674	0.799560546875	156
1559.99999606138	0.00010076904296875	1575.79865702149	0.79925537109375	157
1569.99999603613	9.8541259765625E-05	1585.79865699624	0.799560546875	158
1579.99999601088	9.869384765625E-05	1595.798656971	0.79925537109375	159
1589.99999598564	9.5489501953125E-05	1605.79865694575	0.799560546875	160
1599.99999596039	9.77783203125E-05	1615.7986569205	0.79925537109375	161
1609.99999593514	0.00011163330078125	1625.79865689525	0.799560546875	162
1619.99999590989	9.4207763671875E-05	1635.79865687001	0.799560546875	163
1629.99999588465	5.560302734375E-05	1645.79865684476	0.799560546875	164
1639.9999958594	1.83929443359375E-05	1655.79865681951	0.79986572265625	165
1649.99999583415	1.37725830078125E-05	1665.79865679426	0.799560546875	166
1659.9999958089	1.212158203125E-05	1675.79865676902	0.8001708984375	167
1669.99999578366	1.21734619140625E-05	1685.79865674377	0.799560546875	168
1679.99999575841	1.2176513671875E-05	1695.79865671852	0.7989501953125	169
1689.99999573316	1.21185302734375E-05	1705.79865669327	0.799560546875	170
1699.99999570791	1.20391845703125E-05	1715.79865666802	0.799560546875	171
1709.99999568267	1.2005615234375E-05	1725.79865664278	0.8001708984375	172
1719.99999565742	1.20513916015625E-05	1735.79865661753	0.79986572265625	173
1729.99999563217	9.4635009765625E-05	1745.79865659228	0.799560546875	174
1739.99999560692	0.000103302001953125	1755.79865656703	0.799560546875	175
1749.99999558167	0.000102264404296875	1765.79865654179	0.79986572265625	176
1759.99999555643	9.405517578125E-05	1775.79865651654	0.79925537109375	177
1769.99999553118	0.000100311279296875	1785.79865649129	0.799560546875	178
1779.99999550593	8.984375E-05	1795.79865646604	0.8001708984375	179
1789.99999548068	9.552001953125E-05	1805.7986564408	0.79986572265625	180
1799.99999545544	8.4075927734375E-05	1815.79865641555	0.79986572265625	181
1809.99999543019	9.747314453125E-05	1825.7986563903	0.79986572265625	182
1819.99999540494	8.7005615234375E-05	1835.79865636505	0.8001708984375	183
1829.99999537969	9.1583251953125E-05	1845.79865633981	0.79986572265625	184
1839.99999535445	8.160400390625E-05	1855.79865631456	0.799560546875	185
1849.9999953292	8.7677001953125E-05	1865.79865628931	0.79925537109375	186
1859.99999530395	8.16650390625E-05	1875.79865626406	0.8001708984375	187
1869.9999952787	8.50830078125E-05	1885.79865623882	0.79925537109375	188
1879.99999525346	8.6639404296875E-05	1895.79865621357	0.79986572265625	189
1889.99999522821	8.89892578125E-05	1905.79865618832	0.79986572265625	190
1899.99999520296	8.9263916015625E-05	1915.79865616307	0.79986572265625	191
1909.99999517771	8.3770751953125E-05	1925.79865613783	0.79925537109375	192
1919.99999515247	7.4920654296875E-05	1935.79865611258	0.79925537109375	193
1929.99999512722	7.38525390625E-05	1945.79865608733	0.79925537109375	194
1939.99999510197	7.4462890625E-05	1955.79865606208	0.799560546875	195
1949.99999507672	7.6507568359375E-05	1965.79865603684	0.799560546875	196
1959.99999505148	8.013916015625E-05	1975.79865601159	0.799560546875	197
1969.99999502623	7.525634765625E-05	1985.79865598634	0.799560546875	198
1979.99999500098	7.53173828125E-05	1995.79865596109	0.79986572265625	199
1989.99999497573	8.1146240234375E-05	2005.79865593585	0.799560546875	200
1999.99999495049	8.04443359375E-05	2015.7986559106	0.799560546875	201
2009.99999492524	7.1868896484375E-05	2025.79865588535	0.79986572265625	202
2019.99999489999	6.9671630859375E-05	2035.7986558601	0.79925537109375	203
2029.99999487474	8.001708984375E-05	2045.79865583485	0.79986572265625	204
2039.9999948495	7.745361328125E-05	2055.79865580961	0.799560546875	205
2049.99999482425	6.488037109375E-05	2065.79865578436	0.7989501953125	206
2059.999994799	6.610107421875E-05	2075.79865575911	0.79986572265625	207
2069.99999477375	1.61834716796875E-05	2085.79865573386	0.79925537109375	208
2079.9999947485	1.1273193359375E-05	2095.79865570862	0.79986572265625	209
2089.99999472326	9.04541015625E-06	2105.79865568337	0.799560546875	210
2099.99999469801	8.526611328125E-06	2115.79865565812	0.79986572265625	211
2109.99999467276	8.69140625E-06	2125.79865563287	0.799560546875	212
2119.99999464751	9.295654296875E-06	2135.79865560763	0.799560546875	213
2129.99999462227	9.5947265625E-06	2145.79865558238	0.79986572265625	214
2139.99999459702	9.0484619140625E-06	2155.79865555713	0.79986572265625	215
2149.99999457177	9.4122314453125E-05	2165.79865553188	0.799560546875	216
2159.99999454652	6.8603515625E-05	2175.79865550664	0.799560546875	217
2169.99999452128	6.8145751953125E-05	2185.79865548139	0.799560546875	218
2179.99999449603	8.31298828125E-05	2195.79865545614	0.79986572265625	219
2189.99999447078	7.50732421875E-05	2205.79865543089	0.799560546875	220
2199.99999444553	7.6507568359375E-05	2215.79865540565	0.79925537109375	221
2209.99999442029	7.1563720703125E-05	2225.7986553804	0.7989501953125	222
2219.99999439504	8.184814453125E-05	2235.79865535515	0.79925537109375	223
2229.99999436979	7.4951171875E-05	2245.7986553299	0.79925537109375	224
2239.99999434454	6.9122314453125E-05	2255.79865530466	0.79925537109375	225
2249.9999943193	7.3699951171875E-05	2265.79865527941	0.799560546875	226
2259.99999429405	7.6812744140625E-05	2275.79865525416	0.799560546875	227
2269.9999942688	6.7047119140625E-05	2285.79865522891	0.8001708984375	228
2279.99999424355	7.1868896484375E-05	2295.79865520367	0.79986572265625	229
2289.99999421831	7.049560546875E-05	2305.79865517842	0.79986572265625	230
2299.99999419306	6.439208984375E-05	2315.79865515317	0.79986572265625	231
2309.99999416781	7.9345703125E-05	2325.79865512792	0.799560546875	232
2319.99999414256	6.54296875E-05	2335.79865510268	0.799560546875	233
2329.99999411732	6.8389892578125E-05	2345.79865507743	0.799560546875	234
2339.99999409207	6.915283203125E-05	2355.79865505218	0.79986572265625	235
2349.99999406682	6.8572998046875E-05	2365.79865502693	0.79925537109375	236
2359.99999404157	6.591796875E-05	2375.79865500168	0.79925537109375	237
2369.99999401633	6.4605712890625E-05	2385.79865497644	0.79925537109375	238
2379.99999399108	6.0089111328125E-05	2395.79865495119	0.79986572265625	239
2389.99999396583	6.0150146484375E-05	2405.79865492594	0.79925537109375	240
2399.99999394058	6.1737060546875E-05	2415.79865490069	0.799560546875	241
2409.99999391533	6.1431884765625E-05	2425.79865487545	0.79925537109375	242
2419.99999389009	5.767822265625E-05	2435.7986548502	0.79986572265625	243
2429.99999386484	6.7138671875E-05	2445.79865482495	0.799560546875	244
2439.99999383959	5.5755615234375E-05	2455.7986547997	0.799560546875	245
2449.99999381434	5.755615234375E-05	2465.79865477446	0.79925537109375	246
2459.9999937891	6.0455322265625E-05	2475.79865474921	0.799560546875	247
2469.99999376385	6.3629150390625E-05	2485.79865472396	0.79925537109375	248
2479.9999937386	6.0577392578125E-05	2495.79865469871	0.79925537109375	249
2489.99999371335	6.3323974609375E-05	2505.79865467347	0.799560546875	250
2499.99999368811	6.0089111328125E-05	2515.79865464822	0.799560546875	251
2509.99999366286	5.3314208984375E-05	2525.79865462297	0.79986572265625	252
2519.99999363761	1.13311767578125E-05	2535.79865459772	0.79986572265625	253
2529.99999361236	8.648681640625E-06	2545.79865457248	0.8001708984375	254
2539.99999358712	6.3140869140625E-06	2555.79865454723	0.799560546875	255
2549.99999356187	7.196044921875E-06	2565.79865452198	0.79986572265625	256
2559.99999353662	5.2978515625E-05	2575.79865449673	0.799560546875	257
2569.99999351137	5.694580078125E-05	2585.79865447149	0.79925537109375	258
2579.99999348613	5.2459716796875E-05	2595.79865444624	0.799560546875	259
2589.99999346088	5.3192138671875E-05	2605.79865442099	0.799560546875	260
2599.99999343563	5.291748046875E-05	2615.79865439574	0.799560546875	261
2609.99999341038	5.291748046875E-05	2625.7986543705	0.79986572265625	262
2619.99999338514	5.059814453125E-05	2635.79865434525	0.799560546875	263
2629.99999335989	5.13916015625E-05	2645.79865432	0.79986572265625	264
2639.99999333464	5.8746337890625E-05	2655.79865429475	0.799560546875	265
2649.99999330939	5.255126953125E-05	2665.79865426951	0.79925537109375	266
2659.99999328415	6.3140869140625E-05	2675.79865424426	0.79925537109375	267
2669.9999932589	1.79779052734375E-05	2685.79865421901	0.80047607421875	268
2679.99999323365	9.210205078125E-06	2695.79865419376	0.799560546875	269
2689.9999932084	5.3070068359375E-05	2705.79865416852	0.7989501953125	270
2699.99999318316	5.841064453125E-05	2715.79865414327	0.79986572265625	271
2709.99999315791	5.4229736328125E-05	2725.79865411802	0.79986572265625	272
2719.99999313266	5.06591796875E-05	2735.79865409277	0.799560546875	273
2729.99999310741	4.7540283203125E-05	2745.79865406752	0.79925537109375	274
2739.99999308217	4.77386474609375E-05	2755.79865404228	0.799560546875	275
2749.99999305692	5.0750732421875E-05	2765.79865401703	0.799560546875	276
2759.99999303167	5.0628662109375E-05	2775.79865399178	0.79986572265625	277
2769.99999300642	4.962158203125E-05	2785.79865396653	0.79986572265625	278
2779.99999298117	5.1055908203125E-05	2795.79865394129	0.799560546875	279
2789.99999295593	3.2672119140625E-05	2805.79865391604	0.79986572265625	280
2799.99999293068	4.93408203125E-05	2815.79865389079	0.7989501953125	281
2809.99999290543	4.9224853515625E-05	2825.79865386554	0.79986572265625	282
2819.99999288018	4.45892333984375E-05	2835.7986538403	0.79986572265625	283
2829.99999285494	5.8441162109375E-05	2845.79865381505	0.7989501953125	284
2839.99999282969	4.63470458984375E-05	2855.7986537898	0.799560546875	285
2849.99999280444	4.29595947265625E-05	2865.79865376455	0.799560546875	286
2859.99999277919	5.2978515625E-05	2875.79865373931	0.799560546875	287
2869.99999275395	4.49737548828125E-05	2885.79865371406	0.799560546875	288
2879.9999927287	4.580078125E-05	2895.79865368881	0.799560546875	289
2889.99999270345	4.095458984375E-05	2905.79865366356	0.79986572265625	290
2899.9999926782	4.384765625E-05	2915.79865363832	0.799560546875	291
2909.99999265296	4.8919677734375E-05	2925.79865361307	0.799560546875	292
2919.99999262771	1.07391357421875E-05	2935.79865358782	0.799560546875	293
2929.99999260246	6.243896484375E-06	2945.79865356257	0.799560546875	294
2939.99999257721	6.6253662109375E-06	2955.79865353733	0.799560546875	295
2949.99999255197	4.58984375E-06	2965.79865351208	0.799560546875	296
2959.99999252672	5.4534912109375E-06	2975.79865348683	0.79986572265625	297
2969.99999250147	6.1614990234375E-06	2985.79865346158	0.79925537109375	298
2979.99999247622	5.85296630859375E-05	2995.79865343634	0.7989501953125	299
2989.99999245098	5.5511474609375E-05	3005.79865341109	0.79925537109375	300
2999.99999242573	4.8876953125E-05	3015.79865338584	0.79986572265625	301
3009.99999240048	4.45281982421875E-05	3025.79865336059	0.799560546875	302
3019.99999237523	4.65362548828125E-05	3035.79865333535	0.799560546875	303
3029.99999234999	4.7393798828125E-05	3045.7986533101	0.799560546875	304
3039.99999232474	4.893798828125E-05	3055.79865328485	0.79986572265625	305
3049.99999229949	4.94171142578125E-05	3065.7986532596	0.799560546875	306
3059.99999227424	4.8785400390625E-05	3075.79865323435	0.79925537109375	307
3069.999992249	4.5159912109375E-05	3085.79865320911	0.79925537109375	308
3079.99999222375	4.7467041015625E-05	3095.79865318386	0.799560546875	309
3089.9999921985	3.7567138671875E-05	3105.79865315861	0.79925537109375	310
3099.99999217325	1.0498046875E-05	3115.79865313336	0.799560546875	311
3109.999992148	8.14208984375E-06	3125.79865310812	0.7989501953125	312
3119.99999212276	6.43310546875E-06	3135.79865308287	0.79925537109375	313
3129.99999209751	6.0638427734375E-06	3145.79865305762	0.799560546875	314
3139.99999207226	6.982421875E-06	3155.79865303237	0.79986572265625	315
3149.99999204701	7.0281982421875E-06	3165.79865300713	0.79925537109375	316
3159.99999202177	6.2774658203125E-06	3175.79865298188	0.79986572265625	317
3169.99999199652	8.3770751953125E-06	3185.79865295663	0.79986572265625	318
3179.99999197127	7.2052001953125E-06	3195.79865293138	0.79986572265625	319
3189.99999194602	6.689453125E-06	3205.79865290614	0.79986572265625	320
3199.99999192078	7.48291015625E-06	3215.79865288089	0.79925537109375	321
3209.99999189553	5.60791015625E-05	3225.79865285564	0.79986572265625	322
3219.99999187028	4.676513671875E-05	3235.79865283039	0.79986572265625	323
3229.99999184503	4.39300537109375E-05	3245.79865280515	0.79986572265625	324
3239.99999181979	4.51507568359375E-05	3255.7986527799	0.79986572265625	325
3249.99999179454	4.51141357421875E-05	3265.79865275465	0.799560546875	326
3259.99999176929	4.3780517578125E-05	3275.7986527294	0.79986572265625	327
3269.99999174404	4.99267578125E-05	3285.79865270416	0.7989501953125	328
3279.9999917188	4.43145751953125E-05	3295.79865267891	0.79986572265625	329
3289.99999169355	4.5367431640625E-05	3305.79865265366	0.79986572265625	330
3299.9999916683	4.39697265625E-05	3315.79865262841	0.79986572265625	331
3309.99999164305	5.4840087890625E-05	3325.79865260317	0.8001708984375	332
3319.99999161781	4.8828125E-05	3335.79865257792	0.79925537109375	333
3329.99999159256	4.0966796875E-05	3345.79865255267	0.7989501953125	334
3339.99999156731	4.13787841796875E-05	3355.79865252742	0.79986572265625	335
3349.99999154206	4.14154052734375E-05	3365.79865250218	0.799560546875	336
3359.99999151682	4.43695068359375E-05	3375.79865247693	0.799560546875	337
3369.99999149157	4.11590576171875E-05	3385.79865245168	0.79986572265625	338
3379.99999146632	4.3572998046875E-05	3395.79865242643	0.8001708984375	339
3389.99999144107	4.39605712890625E-05	3405.79865240118	0.8001708984375	340
3399.99999141583	4.7833251953125E-05	3415.79865237594	0.79986572265625	341
3409.99999139058	3.9666748046875E-05	3425.79865235069	0.799560546875	342
3419.99999136533	3.60595703125E-05	3435.79865232544	0.8001708984375	343
3429.99999134008	3.95050048828125E-05	3445.79865230019	0.79925537109375	344
3439.99999131483	4.32037353515625E-05	3455.79865227495	0.79925537109375	345
3449.99999128959	3.927001953125E-05	3465.7986522497	0.799560546875	346
3459.99999126434	2.6190185546875E-05	3475.79865222445	0.79986572265625	347
3469.99999123909	3.84765625E-05	3485.7986521992	0.79986572265625	348
3479.99999121384	4.7698974609375E-05	3495.79865217396	0.79986572265625	349
3489.9999911886	3.5345458984375E-05	3505.79865214871	0.799560546875	350
3499.99999116335	3.24737548828125E-05	3515.79865212346	0.799560546875	351
3509.9999911381	3.84918212890625E-05	3525.79865209821	0.79925537109375	352
3519.99999111285	4.056396484375E-05	3535.79865207297	0.79986572265625	353
3529.99999108761	3.75762939453125E-05	3545.79865204772	0.79925537109375	354
3539.99999106236	3.36273193359375E-05	3555.79865202247	0.799560546875	355
3549.99999103711	4.1925048828125E-05	3565.79865199722	0.79925537109375	356
3559.99999101186	3.67950439453125E-05	3575.79865197198	0.79925537109375	357
3569.99999098662	3.831787109375E-05	3585.79865194673	0.79986572265625	358
3579.99999096137	3.67645263671875E-05	3595.79865192148	0.799560546875	359
3589.99999093612	3.41827392578125E-05	3605.79865189623	0.79925537109375	360
3599.99999091087	4.29046630859375E-05	3615.79865187099	0.79986572265625	361
3609.99999088563	3.36334228515625E-05	3625.79865184574	0.799560546875	362
3619.99999086038	1.0601806640625E-05	3635.79865182049	0.799560546875	363
3629.99999083513	3.04962158203125E-05	3645.79865179524	0.799560546875	364
3639.99999080988	3.150634765625E-05	3655.79865177	0.79986572265625	365
3649.99999078464	3.0877685546875E-05	3665.79865174475	0.8001708984375	366
3659.99999075939	2.9620361328125E-05	3675.7986517195	0.79986572265625	367
3669.99999073414	2.89642333984375E-05	3685.79865169425	0.799560546875	368
3679.99999070889	2.98248291015625E-05	3695.79865166901	0.79986572265625	369
3689.99999068365	3.033447265625E-05	3705.79865164376	0.79925537109375	370
3699.9999906584	3.06640625E-05	3715.79865161851	0.79986572265625	371
3709.99999063315	3.0841064453125E-05	3725.79865159326	0.79925537109375	372
3719.9999906079	2.91748046875E-05	3735.79865156802	0.7989501953125	373
3729.99999058266	2.796630859375E-05	3745.79865154277	0.799560546875	374
3739.99999055741	3.052978515625E-05	3755.79865151752	0.799560546875	375
3749.99999053216	3.06365966796875E-05	3765.79865149227	0.79986572265625	376
3759.99999050691	2.8619384765625E-05	3775.79865146702	0.799560546875	377
3769.99999048167	3.0267333984375E-05	3785.79865144178	0.79986572265625	378
3779.99999045642	2.9296875E-05	3795.79865141653	0.799560546875	379
3789.99999043117	2.95623779296875E-05	3805.79865139128	0.79986572265625	380
3799.99999040592	3.05816650390625E-05	3815.79865136603	0.79925537109375	381
3809.99999038067	3.165283203125E-05	3825.79865134079	0.79925537109375	382
3819.99999035543	2.9107666015625E-05	3835.79865131554	0.799560546875	383
3829.99999033018	3.00018310546875E-05	3845.79865129029	0.799560546875	384
3839.99999030493	2.90740966796875E-05	3855.79865126504	0.7989501953125	385
3849.99999027968	2.720947265625E-05	3865.7986512398	0.79986572265625	386
3859.99999025444	3.25927734375E-05	3875.79865121455	0.79925537109375	387
3869.99999022919	2.83233642578125E-05	3885.7986511893	0.79925537109375	388
3879.99999020394	2.92755126953125E-05	3895.79865116405	0.79986572265625	389
3889.99999017869	2.93731689453125E-05	3905.79865113881	0.79925537109375	390
3899.99999015345	3.1207275390625E-05	3915.79865111356	0.79986572265625	391
3909.9999901282	2.923583984375E-05	3925.79865108831	0.799560546875	392
3919.99999010295	2.559814453125E-05	3935.79865106306	0.799560546875	393
3929.9999900777	3.1060791015625E-05	3945.79865103782	0.79986572265625	394
3939.99999005246	2.9400634765625E-05	3955.79865101257	0.799560546875	395
3949.99999002721	2.672119140625E-05	3965.79865098732	0.79986572265625	396
3959.99999000196	2.86834716796875E-05	3975.79865096207	0.79925537109375	397
3969.99998997671	2.74322509765625E-05	3985.79865093683	0.799560546875	398
3979.99998995147	2.67181396484375E-05	3995.79865091158	0.799560546875	399
3989.99998992622	2.82745361328125E-05	4005.79865088633	0.799560546875	400
3999.99998990097	2.58056640625E-05	4015.79865086108	0.79925537109375	401
4009.99998987572	2.5152587890625E-05	4025.79865083584	0.79925537109375	402
4019.99998985048	2.71240234375E-05	4035.79865081059	0.79864501953125	403
4029.99998982523	2.68341064453125E-05	4045.79865078534	0.799560546875	404
4039.99998979998	2.6055908203125E-05	4055.79865076009	0.799560546875	405
4049.99998977473	2.6397705078125E-05	4065.79865073485	0.79986572265625	406
4059.99998974949	2.65228271484375E-05	4075.7986507096	0.799560546875	407
4069.99998972424	2.52777099609375E-05	4085.79865068435	0.79986572265625	408
4079.99998969899	2.53509521484375E-05	4095.7986506591	0.799560546875	409
4089.99998967374	2.63580322265625E-05	4105.79865063385	0.80047607421875	410
4099.9999896485	2.38372802734375E-05	4115.79865060861	0.79925537109375	411
4109.99998962325	2.52899169921875E-05	4125.79865058336	0.799560546875	412
4119.999989598	2.5811767578125E-05	4135.79865055811	0.799560546875	413
4129.99998957275	2.6849365234375E-05	4145.79865053286	0.79925537109375	414
4139.9999895475	2.46337890625E-05	4155.79865050762	0.80047607421875	415
4149.99998952226	2.61199951171875E-05	4165.79865048237	0.799560546875	416
4159.99998949701	2.3291015625E-05	4175.79865045712	0.79925537109375	417
4169.99998947176	2.44659423828125E-05	4185.79865043187	0.79986572265625	418
4179.99998944651	2.587890625E-05	4195.79865040663	0.79986572265625	419
4189.99998942127	2.62451171875E-05	4205.79865038138	0.79986572265625	420
4199.99998939602	2.72186279296875E-05	4215.79865035613	0.799560546875	421
4209.99998937077	2.41546630859375E-05	4225.79865033088	0.79986572265625	422
4219.99998934552	2.31475830078125E-05	4235.79865030564	0.8001708984375	423
4229.99998932028	2.43865966796875E-05	4245.79865028039	0.80047607421875	424
4239.99998929503	2.35870361328125E-05	4255.79865025514	0.79986572265625	425
4249.99998926978	2.3486328125E-05	4265.79865022989	0.79925537109375	426
4259.99998924453	2.4224853515625E-05	4275.79865020465	0.799560546875	427
4269.99998921929	2.337646484375E-05	4285.7986501794	0.79986572265625	428
4279.99998919404	2.28424072265625E-05	4295.79865015415	0.79986572265625	429
4289.99998916879	2.611083984375E-05	4305.7986501289	0.8001708984375	430
4299.99998914354	2.48138427734375E-05	4315.79865010366	0.79986572265625	431
4309.9999891183	2.4652099609375E-05	4325.79865007841	0.799560546875	432
4319.99998909305	2.18292236328125E-05	4335.79865005316	0.799560546875	433
4329.9999890678	2.40997314453125E-05	4345.79865002791	0.7989501953125	434
4339.99998904255	2.418212890625E-05	4355.79865000267	0.799560546875	435
4349.99998901731	2.44964599609375E-05	4365.79864997742	0.799560546875	436
4359.99998899206	2.40081787109375E-05	4375.79864995217	0.79925537109375	437
4369.99998896681	2.3175048828125E-05	4385.79864992692	0.79925537109375	438
4379.99998894156	2.77008056640625E-05	4395.79864990168	0.79925537109375	439
4389.99998891632	2.197265625E-05	4405.79864987643	0.799560546875	440
4399.99998889107	2.31689453125E-05	4415.79864985118	0.79925537109375	441
4409.99998886582	2.139892578125E-05	4425.79864982593	0.8001708984375	442
4419.99998884057	2.23785400390625E-05	4435.79864980068	0.799560546875	443
4429.99998881533	2.43255615234375E-05	4445.79864977544	0.799560546875	444
4439.99998879008	2.1630859375E-05	4455.79864975019	0.79925537109375	445
4449.99998876483	2.0770263671875E-05	4465.79864972494	0.79925537109375	446
4459.99998873958	2.384033203125E-05	4475.79864969969	0.799560546875	447
4469.99998871433	2.083740234375E-05	4485.79864967445	0.799560546875	448
4479.99998868909	2.24029541015625E-05	4495.7986496492	0.799560546875	449
4489.99998866384	2.3126220703125E-05	4505.79864962395	0.79925537109375	450
4499.99998863859	2.275390625E-05	4515.7986495987	0.799560546875	451
4509.99998861334	2.2149658203125E-05	4525.79864957346	0.799560546875	452
4519.9999885881	2.249755859375E-05	4535.79864954821	0.799560546875	453
4529.99998856285	2.3291015625E-05	4545.79864952296	0.8001708984375	454
4539.9999885376	2.2705078125E-05	4555.79864949771	0.79925537109375	455
4549.99998851235	2.42828369140625E-05	4565.79864947247	0.79986572265625	456
4559.99998848711	2.24029541015625E-05	4575.79864944722	0.799560546875	457
4569.99998846186	2.19390869140625E-05	4585.79864942197	0.79986572265625	458
4579.99998843661	2.7020263671875E-05	4595.79864939672	0.79925537109375	459
4589.99998841136	2.0367431640625E-05	4605.79864937148	0.799560546875	460
4599.99998838612	2.158203125E-05	4615.79864934623	0.79986572265625	461
4609.99998836087	2.3321533203125E-05	4625.79864932098	0.799560546875	462
4619.99998833562	2.13714599609375E-05	4635.79864929573	0.79986572265625	463
4629.99998831037	2.1832275390625E-05	4645.79864927049	0.79986572265625	464
4639.99998828513	2.095947265625E-05	4655.79864924524	0.799560546875	465
4649.99998825988	2.12493896484375E-05	4665.79864921999	0.8001708984375	466
4659.99998823463	2.15179443359375E-05	4675.79864919474	0.799560546875	467
4669.99998820938	2.276611328125E-05	4685.7986491695	0.79986572265625	468
4679.99998818414	2.0391845703125E-05	4695.79864914425	0.79986572265625	469
4689.99998815889	2.21343994140625E-05	4705.798649119	0.8001708984375	470
4699.99998813364	2.05230712890625E-05	4715.79864909375	0.8001708984375	471
4709.99998810839	2.1307373046875E-05	4725.79864906851	0.799560546875	472
4719.99998808315	2.19390869140625E-05	4735.79864904326	0.8001708984375	473
4729.9999880579	2.110595703125E-05	4745.79864901801	0.79925537109375	474
4739.99998803265	2.07733154296875E-05	4755.79864899276	0.79986572265625	475
4749.9999880074	2.16552734375E-05	4765.79864896752	0.7989501953125	476
4759.99998798216	1.98089599609375E-05	4775.79864894227	0.799560546875	477
4769.99998795691	1.89361572265625E-05	4785.79864891702	0.799560546875	478
4779.99998793166	2.16827392578125E-05	4795.79864889177	0.7989501953125	479
4789.99998790641	2.08709716796875E-05	4805.79864886652	0.799560546875	480
4799.99998788117	2.242431640625E-05	4815.79864884128	0.799560546875	481
4809.99998785592	2.04681396484375E-05	4825.79864881603	0.79986572265625	482
4819.99998783067	2.13958740234375E-05	4835.79864879078	0.79925537109375	483
4829.99998780542	1.8853759765625E-05	4845.79864876553	0.79986572265625	484
4839.99998778017	2.091064453125E-05	4855.79864874029	0.79986572265625	485
4849.99998775493	2.02728271484375E-05	4865.79864871504	0.79986572265625	486
4859.99998772968	2.1044921875E-05	4875.79864868979	0.79925537109375	487
4869.99998770443	2.001953125E-05	4885.79864866454	0.79925537109375	488
4879.99998767918	2.05291748046875E-05	4895.7986486393	0.799560546875	489
4889.99998765394	2.1502685546875E-05	4905.79864861405	0.79925537109375	490
4899.99998762869	2.0703125E-05	4915.7986485888	0.7989501953125	491
4909.99998760344	2.14691162109375E-05	4925.79864856355	0.79925537109375	492
4919.99998757819	2.02972412109375E-05	4935.79864853831	0.799560546875	493
4929.99998755295	2.10723876953125E-05	4945.79864851306	0.79925537109375	494
4939.9999875277	2.08953857421875E-05	4955.79864848781	0.7989501953125	495
4949.99998750245	1.83349609375E-05	4965.79864846256	0.79986572265625	496
4959.9999874772	2.06787109375E-05	4975.79864843732	0.79986572265625	497
4969.99998745196	1.87835693359375E-05	4985.79864841207	0.8001708984375	498
4979.99998742671	2.01171875E-05	4995.79864838682	0.79925537109375	499
4989.99998740146	2.13226318359375E-05	5005.79864836157	0.7989501953125	500
4999.99998737621	1.88140869140625E-05	5015.79864833633	0.799560546875	501
5009.99998735097	1.9525146484375E-05	5025.79864831108	0.79925537109375	502
5019.99998732572	1.90826416015625E-05	5035.79864828583	0.799560546875	503
5029.99998730047	1.9805908203125E-05	5045.79864826058	0.79925537109375	504
5039.99998727522	2.02056884765625E-05	5055.79864823534	0.799560546875	505
5049.99998724998	1.92413330078125E-05	5065.79864821009	0.799560546875	506
5059.99998722473	1.8841552734375E-05	5075.79864818484	0.799560546875	507
5069.99998719948	2.08526611328125E-05	5085.79864815959	0.79986572265625	508
5079.99998717423	1.9158935546875E-05	5095.79864813435	0.79925537109375	509
5089.99998714899	1.8463134765625E-05	5105.7986481091	0.8001708984375	510
5099.99998712374	1.829833984375E-05	5115.79864808385	0.799560546875	511
5109.99998709849	1.90185546875E-05	5125.7986480586	0.79986572265625	512
5119.99998707324	1.884765625E-05	5135.79864803335	0.799560546875	513
5129.999987048	1.71722412109375E-05	5145.79864800811	0.799560546875	514
5139.99998702275	1.89178466796875E-05	5155.79864798286	0.8001708984375	515
5149.9999869975	2.01507568359375E-05	5165.79864795761	0.8001708984375	516
5159.99998697225	1.8963623046875E-05	5175.79864793236	0.79925537109375	517
5169.999986947	2.01507568359375E-05	5185.79864790712	0.79986572265625	518
5179.99998692176	1.79840087890625E-05	5195.79864788187	0.799560546875	519
5189.99998689651	1.97509765625E-05	5205.79864785662	0.79925537109375	520
5199.99998687126	1.8609619140625E-05	5215.79864783137	0.8001708984375	521
5209.99998684601	1.895751953125E-05	5225.79864780613	0.799560546875	522
5219.99998682077	1.87713623046875E-05	5235.79864778088	0.79986572265625	523
5229.99998679552	1.990966796875E-05	5245.79864775563	0.79925537109375	524
5239.99998677027	2.0550537109375E-05	5255.79864773038	0.79925537109375	525
5249.99998674502	1.86737060546875E-05	5265.79864770514	0.799560546875	526
5259.99998671978	1.8634033203125E-05	5275.79864767989	0.79986572265625	527
5269.99998669453	1.85760498046875E-05	5285.79864765464	0.79986572265625	528
5279.99998666928	1.90673828125E-05	5295.79864762939	0.7989501953125	529
5289.99998664403	2.07763671875E-05	5305.79864760415	0.799560546875	530
5299.99998661879	1.76666259765625E-05	5315.7986475789	0.799560546875	531
5309.99998659354	1.8304443359375E-05	5325.79864755365	0.8001708984375	532
5319.99998656829	1.84173583984375E-05	5335.7986475284	0.79925537109375	533
5329.99998654304	1.82464599609375E-05	5345.79864750316	0.79986572265625	534
5339.9999865178	1.7498779296875E-05	5355.79864747791	0.79925537109375	535
5349.99998649255	2.03277587890625E-05	5365.79864745266	0.799560546875	536
5359.9999864673	1.86737060546875E-05	5375.79864742741	0.79986572265625	537
5369.99998644205	1.9256591796875E-05	5385.79864740217	0.799560546875	538
5379.99998641681	1.92535400390625E-05	5395.79864737692	0.799560546875	539
5389.99998639156	2.0953369140625E-05	5405.79864735167	0.79986572265625	540
5399.99998636631	1.91650390625E-05	5415.79864732642	0.79986572265625	541
5409.99998634106	2.271728515625E-05	5425.79864730118	0.799560546875	542
5419.99998631582	1.88507080078125E-05	5435.79864727593	0.799560546875	543
5429.99998629057	1.83624267578125E-05	5445.79864725068	0.79925537109375	544
5439.99998626532	1.727294921875E-05	5455.79864722543	0.79986572265625	545
5449.99998624007	1.805419921875E-05	5465.79864720018	0.79986572265625	546
5459.99998621483	1.86676025390625E-05	5475.79864717494	0.799560546875	547
5469.99998618958	1.75140380859375E-05	5485.79864714969	0.799560546875	548
5479.99998616433	1.8072509765625E-05	5495.79864712444	0.80047607421875	549
5489.99998613908	1.8414306640625E-05	5505.79864709919	0.799560546875	550
5499.99998611383	1.76177978515625E-05	5515.79864707395	0.799560546875	551
5509.99998608859	1.754150390625E-05	5525.7986470487	0.79986572265625	552
5519.99998606334	1.708984375E-05	5535.79864702345	0.799560546875	553
5529.99998603809	1.79290771484375E-05	5545.7986469982	0.799560546875	554
5539.99998601284	1.85455322265625E-05	5555.79864697296	0.79925537109375	555
5549.9999859876	1.766357421875E-05	5565.79864694771	0.799560546875	556
5559.99998596235	1.8634033203125E-05	5575.79864692246	0.7989501953125	557
5569.9999859371	1.59942626953125E-05	5585.79864689721	0.799560546875	558
5579.99998591185	1.60430908203125E-05	5595.79864687197	0.799560546875	559
5589.99998588661	1.6845703125E-05	5605.79864684672	0.79925537109375	560
5599.99998586136	1.722412109375E-05	5615.79864682147	0.799560546875	561
5609.99998583611	1.81060791015625E-05	5625.79864679622	0.799560546875	562
5619.99998581086	1.89727783203125E-05	5635.79864677098	0.79986572265625	563
5629.99998578562	1.8212890625E-05	5645.79864674573	0.799560546875	564
5639.99998576037	1.69769287109375E-05	5655.79864672048	0.79986572265625	565
5649.99998573512	1.6455078125E-05	5665.79864669523	0.79986572265625	566
5659.99998570987	1.73187255859375E-05	5675.79864666999	0.799560546875	567
5669.99998568463	1.75048828125E-05	5685.79864664474	0.799560546875	568
5679.99998565938	1.85455322265625E-05	5695.79864661949	0.79986572265625	569
5689.99998563413	1.82037353515625E-05	5705.79864659424	0.8001708984375	570
5699.99998560888	1.82281494140625E-05	5715.798646569	0.799560546875	571
5709.99998558364	1.76666259765625E-05	5725.79864654375	0.79925537109375	572
5719.99998555839	1.7242431640625E-05	5735.7986465185	0.79986572265625	573
5729.99998553314	1.60400390625E-05	5745.79864649325	0.79986572265625	574
5739.99998550789	1.85821533203125E-05	5755.79864646801	0.79986572265625	575
5749.99998548265	1.70806884765625E-05	5765.79864644276	0.799560546875	576
5759.9999854574	1.94549560546875E-05	5775.79864641751	0.79986572265625	577
5769.99998543215	1.798095703125E-05	5785.79864639226	0.8001708984375	578
5779.9999854069	1.66351318359375E-05	5795.79864636702	0.79986572265625	579
5789.99998538166	1.70562744140625E-05	5805.79864634177	0.799560546875	580
5799.99998535641	1.76422119140625E-05	5815.79864631652	0.799560546875	581
5809.99998533116	2.26837158203125E-05	5825.79864629127	0.799560546875	582
5819.99998530591	1.81427001953125E-05	5835.79864626602	0.79925537109375	583
5829.99998528067	1.92474365234375E-05	5845.79864624078	0.79986572265625	584
5839.99998525542	1.8359375E-05	5855.79864621553	0.7989501953125	585
5849.99998523017	1.689453125E-05	5865.79864619028	0.799560546875	586
5859.99998520492	1.73828125E-05	5875.79864616503	0.799560546875	587
5869.99998517967	1.787109375E-05	5885.79864613979	0.79986572265625	588
5879.99998515443	1.7462158203125E-05	5895.79864611454	0.799560546875	589
5889.99998512918	1.80023193359375E-05	5905.79864608929	0.799560546875	590
5899.99998510393	1.87774658203125E-05	5915.79864606404	0.79925537109375	591
5909.99998507868	1.6790771484375E-05	5925.7986460388	0.799560546875	592
5919.99998505344	1.78802490234375E-05	5935.79864601355	0.799560546875	593
5929.99998502819	1.86676025390625E-05	5945.7986459883	0.79986572265625	594
5939.99998500294	1.63726806640625E-05	5955.79864596305	0.79986572265625	595
5949.99998497769	1.69677734375E-05	5965.79864593781	0.8001708984375	596
5959.99998495245	1.69158935546875E-05	5975.79864591256	0.8001708984375	597
5969.9999849272	1.6864013671875E-05	5985.79864588731	0.8001708984375	598
5979.99998490195	1.68914794921875E-05	5995.79864586206	0.79925537109375	599
5989.9999848767	1.71966552734375E-05	6005.79864583682	0.79986572265625	600
5999.99998485146	1.53167724609375E-05	6015.79864581157	0.799560546875	601
6009.99998482621	1.78985595703125E-05	6025.79864578632	0.79925537109375	602
6019.99998480096	1.70867919921875E-05	6035.79864576107	0.79986572265625	603
6029.99998477571	1.61346435546875E-05	6045.79864573583	0.8001708984375	604
6039.99998475047	1.588134765625E-05	6055.79864571058	0.8001708984375	605
6049.99998472522	1.734619140625E-05	6065.79864568533	0.79864501953125	606
6059.99998469997	1.749267578125E-05	6075.79864566008	0.79986572265625	607
6069.99998467472	1.5191650390625E-05	6085.79864563484	0.79986572265625	608
6079.99998464948	1.60552978515625E-05	6095.79864560959	0.799560546875	609
6089.99998462423	1.86187744140625E-05	6105.79864558434	0.79986572265625	610
6099.99998459898	1.67144775390625E-05	6115.79864555909	0.799560546875	611
6109.99998457373	1.59881591796875E-05	6125.79864553385	0.799560546875	612
6119.99998454849	1.72027587890625E-05	6135.7986455086	0.79986572265625	613
6129.99998452324	1.80267333984375E-05	6145.79864548335	0.79925537109375	614
6139.99998449799	1.62841796875E-05	6155.7986454581	0.79986572265625	615
6149.99998447274	1.59637451171875E-05	6165.79864543285	0.8001708984375	616
6159.9999844475	1.70501708984375E-05	6175.79864540761	0.799560546875	617
6169.99998442225	1.6485595703125E-05	6185.79864538236	0.799560546875	618
6179.999984397	1.60980224609375E-05	6195.79864535711	0.8001708984375	619
6189.99998437175	1.77520751953125E-05	6205.79864533186	0.79986572265625	620
6199.9999843465	1.57867431640625E-05	6215.79864530662	0.7989501953125	621
6209.99998432126	1.62841796875E-05	6225.79864528137	0.799560546875	622
6219.99998429601	1.62933349609375E-05	6235.79864525612	0.799560546875	623
6229.99998427076	1.7132568359375E-05	6245.79864523087	0.799560546875	624
6239.99998424551	1.7388916015625E-05	6255.79864520563	0.79986572265625	625
6249.99998422027	1.69158935546875E-05	6265.79864518038	0.799560546875	626
6259.99998419502	1.64306640625E-05	6275.79864515513	0.7989501953125	627
6269.99998416977	1.5789794921875E-05	6285.79864512988	0.799560546875	628
6279.99998414452	1.519775390625E-05	6295.79864510464	0.79986572265625	629
6289.99998411928	1.5606689453125E-05	6305.79864507939	0.799560546875	630
6299.99998409403	1.575927734375E-05	6315.79864505414	0.79925537109375	631
6309.99998406878	1.74835205078125E-05	6325.79864502889	0.8001708984375	632
6319.99998404353	1.71478271484375E-05	6335.79864500365	0.799560546875	633
6329.99998401829	1.63330078125E-05	6345.7986449784	0.79986572265625	634
6339.99998399304	1.624755859375E-05	6355.79864495315	0.799560546875	635
6349.99998396779	1.4764404296875E-05	6365.7986449279	0.79986572265625	636
6359.99998394254	1.52374267578125E-05	6375.79864490266	0.799560546875	637
6369.9999839173	1.66046142578125E-05	6385.79864487741	0.799560546875	638
6379.99998389205	1.83319091796875E-05	6395.79864485216	0.79925537109375	639
6389.9999838668	1.64947509765625E-05	6405.79864482691	0.79986572265625	640
6399.99998384155	1.6412353515625E-05	6415.79864480167	0.799560546875	641
6409.99998381631	1.49658203125E-05	6425.79864477642	0.79925537109375	642
6419.99998379106	1.53717041015625E-05	6435.79864475117	0.79925537109375	643
6429.99998376581	1.45843505859375E-05	6445.79864472592	0.799560546875	644
6439.99998374056	1.510009765625E-05	6455.79864470068	0.799560546875	645
6449.99998371532	1.53778076171875E-05	6465.79864467543	0.8001708984375	646
6459.99998369007	1.6192626953125E-05	6475.79864465018	0.799560546875	647
6469.99998366482	1.59271240234375E-05	6485.79864462493	0.79986572265625	648
6479.99998363957	1.62200927734375E-05	6495.79864459968	0.79925537109375	649
6489.99998361433	1.646728515625E-05	6505.79864457444	0.79986572265625	650
6499.99998358908	1.61102294921875E-05	6515.79864454919	0.79925537109375	651
6509.99998356383	1.6632080078125E-05	6525.79864452394	0.79986572265625	652
6519.99998353858	1.69525146484375E-05	6535.79864449869	0.79986572265625	653
6529.99998351333	1.5545654296875E-05	6545.79864447345	0.79986572265625	654
6539.99998348809	1.5228271484375E-05	6555.7986444482	0.8001708984375	655
6549.99998346284	1.46942138671875E-05	6565.79864442295	0.799560546875	656
6559.99998343759	1.5362548828125E-05	6575.7986443977	0.79986572265625	657
6569.99998341234	1.63665771484375E-05	6585.79864437246	0.799560546875	658
6579.9999833871	1.57135009765625E-05	6595.79864434721	0.79925537109375	659
6589.99998336185	1.6363525390625E-05	6605.79864432196	0.8001708984375	660
6599.9999833366	1.66351318359375E-05	6615.79864429671	0.799560546875	661
6609.99998331135	1.58447265625E-05	6625.79864427147	0.79925537109375	662
6619.99998328611	1.55120849609375E-05	6635.79864424622	0.79925537109375	663
6629.99998326086	1.661376953125E-05	6645.79864422097	0.79925537109375	664
6639.99998323561	1.62567138671875E-05	6655.79864419572	0.799560546875	665
6649.99998321036	1.40960693359375E-05	6665.79864417048	0.799560546875	666
6659.99998318512	1.5618896484375E-05	6675.79864414523	0.79925537109375	667
6669.99998315987	1.45416259765625E-05	6685.79864411998	0.799560546875	668
6679.99998313462	1.39251708984375E-05	6695.79864409473	0.79986572265625	669
6689.99998310937	1.4715576171875E-05	6705.79864406949	0.79986572265625	670
6699.99998308413	1.69891357421875E-05	6715.79864404424	0.80047607421875	671
6709.99998305888	1.588134765625E-05	6725.79864401899	0.79925537109375	672
6719.99998303363	1.48773193359375E-05	6735.79864399374	0.799560546875	673
6729.99998300838	1.47216796875E-05	6745.7986439685	0.799560546875	674
6739.99998298314	1.6485595703125E-05	6755.79864394325	0.799560546875	675
6749.99998295789	1.59515380859375E-05	6765.798643918	0.79925537109375	676
6759.99998293264	1.62994384765625E-05	6775.79864389275	0.799560546875	677
6769.99998290739	1.558837890625E-05	6785.79864386751	0.79986572265625	678
6779.99998288215	1.41693115234375E-05	6795.79864384226	0.799560546875	679
6789.9999828569	1.49993896484375E-05	6805.79864381701	0.7989501953125	680
6799.99998283165	1.45843505859375E-05	6815.79864379176	0.79925537109375	681
6809.9999828064	1.3916015625E-05	6825.79864376651	0.7989501953125	682
6819.99998278116	1.42822265625E-05	6835.79864374127	0.79925537109375	683
6829.99998275591	1.38916015625E-05	6845.79864371602	0.79986572265625	684
6839.99998273066	1.4599609375E-05	6855.79864369077	0.79925537109375	685
6849.99998270541	1.40655517578125E-05	6865.79864366552	0.79986572265625	686
6859.99998268017	1.55364990234375E-05	6875.79864364028	0.79925537109375	687
6869.99998265492	1.5179443359375E-05	6885.79864361503	0.799560546875	688
6879.99998262967	1.65313720703125E-05	6895.79864358978	0.799560546875	689
6889.99998260442	1.669921875E-05	6905.79864356453	0.79986572265625	690
6899.99998257917	1.55548095703125E-05	6915.79864353929	0.8001708984375	691
6909.99998255393	1.5106201171875E-05	6925.79864351404	0.799560546875	692
6919.99998252868	1.55609130859375E-05	6935.79864348879	0.8001708984375	693
6929.99998250343	1.4569091796875E-05	6945.79864346354	0.799560546875	694
6939.99998247818	1.45782470703125E-05	6955.7986434383	0.799560546875	695
6949.99998245294	1.38916015625E-05	6965.79864341305	0.799560546875	696
6959.99998242769	1.387939453125E-05	6975.7986433878	0.7989501953125	697
6969.99998240244	1.3671875E-05	6985.79864336255	0.79986572265625	698
6979.99998237719	1.37908935546875E-05	6995.79864333731	0.799560546875	699
6989.99998235195	1.3519287109375E-05	7005.79864331206	0.79986572265625	700
6999.9999823267	1.41510009765625E-05	7015.79864328681	0.799560546875	701
7009.99998230145	1.3812255859375E-05	7025.79864326156	0.79986572265625	702
7019.9999822762	1.55914306640625E-05	7035.79864323632	0.799560546875	703
7029.99998225096	1.60125732421875E-05	7045.79864321107	0.799560546875	704
7039.99998222571	1.52862548828125E-05	7055.79864318582	0.799560546875	705
7049.99998220046	1.57867431640625E-05	7065.79864316057	0.799560546875	706
7059.99998217521	1.48223876953125E-05	7075.79864313533	0.79986572265625	707
7069.99998214997	1.59576416015625E-05	7085.79864311008	0.799560546875	708
7079.99998212472	1.634521484375E-05	7095.79864308483	0.799560546875	709
7089.99998209947	1.483154296875E-05	7105.79864305958	0.79925537109375	710
7099.99998207422	1.4422607421875E-05	7115.79864303434	0.799560546875	711
7109.99998204898	1.43310546875E-05	7125.79864300909	0.79986572265625	712
7119.99998202373	1.48712158203125E-05	7135.79864298384	0.79925537109375	713
7129.99998199848	1.5179443359375E-05	7145.79864295859	0.799560546875	714
7139.99998197323	1.5545654296875E-05	7155.79864293335	0.799560546875	715
7149.99998194799	1.553955078125E-05	7165.7986429081	0.799560546875	716
7159.99998192274	1.5643310546875E-05	7175.79864288285	0.799560546875	717
7169.99998189749	1.36077880859375E-05	7185.7986428576	0.799560546875	718
7179.99998187224	1.38336181640625E-05	7195.79864283235	0.7989501953125	719
7189.999981847	1.46087646484375E-05	7205.79864280711	0.79986572265625	720
7199.99998182175	1.4617919921875E-05	7215.79864278186	0.799560546875	721
7209.9999817965	1.47979736328125E-05	7225.79864275661	0.799560546875	722
7219.99998177125	1.36749267578125E-05	7235.79864273136	0.799560546875	723
7229.999981746	1.46820068359375E-05	7245.79864270612	0.799560546875	724
7239.99998172076	1.48468017578125E-05	7255.79864268087	0.79986572265625	725
7249.99998169551	1.54327392578125E-05	7265.79864265562	0.799560546875	726
7259.99998167026	1.5667724609375E-05	7275.79864263037	0.799560546875	727
7269.99998164501	1.52435302734375E-05	7285.79864260513	0.79925537109375	728
7279.99998161977	1.6058349609375E-05	7295.79864257988	0.799560546875	729
7289.99998159452	1.54876708984375E-05	7305.79864255463	0.799560546875	730
7299.99998156927	1.39495849609375E-05	7315.79864252938	0.799560546875	731
7309.99998154402	1.41693115234375E-05	7325.79864250414	0.799560546875	732
7319.99998151878	1.46881103515625E-05	7335.79864247889	0.79986572265625	733
7329.99998149353	1.4093017578125E-05	7345.79864245364	0.79986572265625	734
7339.99998146828	1.40411376953125E-05	7355.79864242839	0.79986572265625	735
7349.99998144303	1.2786865234375E-05	7365.79864240315	0.79986572265625	736
7359.99998141779	1.3165283203125E-05	7375.7986423779	0.79986572265625	737
7369.99998139254	1.3165283203125E-05	7385.79864235265	0.79986572265625	738
7379.99998136729	1.41265869140625E-05	7395.7986423274	0.80047607421875	739
7389.99998134204	1.31561279296875E-05	7405.79864230216	0.799560546875	740
7399.9999813168	1.40350341796875E-05	7415.79864227691	0.799560546875	741
7409.99998129155	1.2774658203125E-05	7425.79864225166	0.799560546875	742
7419.9999812663	1.32354736328125E-05	7435.79864222641	0.799560546875	743
7429.99998124105	1.256103515625E-05	7445.79864220117	0.8001708984375	744
7439.99998121581	1.337890625E-05	7455.79864217592	0.799560546875	745
7449.99998119056	1.419677734375E-05	7465.79864215067	0.79986572265625	746
7459.99998116531	1.527099609375E-05	7475.79864212542	0.79986572265625	747
7469.99998114006	1.636962890625E-05	7485.79864210018	0.799560546875	748
7479.99998111482	1.761474609375E-05	7495.79864207493	0.79986572265625	749
7489.99998108957	1.8719482421875E-05	7505.79864204968	0.799560546875	750
7499.99998106432	2.406005859375E-05	7515.79864202443	0.79986572265625	751
7509.99998103907	2.76947021484375E-05	7525.79864199918	0.799560546875	752
7519.99998101383	2.9248046875E-05	7535.79864197394	0.79986572265625	753
7529.99998098858	2.88665771484375E-05	7545.79864194869	0.79925537109375	754
7539.99998096333	2.81829833984375E-05	7555.79864192344	0.80047607421875	755
7549.99998093808	2.97119140625E-05	7565.79864189819	0.79925537109375	756
7559.99998091283	2.98858642578125E-05	7575.79864187295	0.79986572265625	757
7569.99998088759	3.00537109375E-05	7585.7986418477	0.79925537109375	758
7579.99998086234	2.84759521484375E-05	7595.79864182245	0.8001708984375	759
7589.99998083709	2.7630615234375E-05	7605.7986417972	0.799560546875	760
7599.99998081184	2.62725830078125E-05	7615.79864177196	0.79986572265625	761
7609.9999807866	2.79327392578125E-05	7625.79864174671	0.8001708984375	762
7619.99998076135	2.958984375E-05	7635.79864172146	0.8001708984375	763
7629.9999807361	2.81585693359375E-05	7645.79864169621	0.799560546875	764
7639.99998071085	2.5445556640625E-05	7655.79864167097	0.79925537109375	765
7649.99998068561	2.44964599609375E-05	7665.79864164572	0.7989501953125	766
7659.99998066036	2.69744873046875E-05	7675.79864162047	0.799560546875	767
7669.99998063511	2.67333984375E-05	7685.79864159522	0.8001708984375	768
7679.99998060986	2.6824951171875E-05	7695.79864156998	0.799560546875	769
7689.99998058462	2.696533203125E-05	7705.79864154473	0.80047607421875	770
7699.99998055937	2.6910400390625E-05	7715.79864151948	0.799560546875	771
7709.99998053412	2.79205322265625E-05	7725.79864149423	0.799560546875	772
