Corrected time (s)	WE(1).Potential (V)	Time (s)	WE(1).Current (A)	Index
0	0.30010986328125	15.7779909601644	0.000246673583984375	1
9.99999997475243	0.29998779296875	25.7779909349168	0.00023162841796875	2
19.9999999495049	0.299957275390625	35.7779909096693	0.00022552490234375	3
29.9999999242573	0.300048828125	45.7779908844217	0.000219146728515625	4
39.9999998990097	0.2999267578125	55.7779908591741	0.000218353271484375	5
49.9999998737621	0.29962158203125	65.7779908339265	0.000216827392578125	6
59.9999998485146	0.299957275390625	75.777990808679	0.00022467041015625	7
69.999999823267	0.29986572265625	85.7779907834314	0.000214691162109375	8
79.9999997980194	0.299957275390625	95.7779907581838	0.000213714599609375	9
89.9999997727718	0.29986572265625	105.777990732936	0.000222747802734375	10
99.9999997475243	0.299896240234375	115.777990707689	0.00020916748046875	11
109.999999722277	0.29986572265625	125.777990682441	0.000206878662109375	12
119.999999697029	0.300079345703125	135.777990657194	0.000199005126953125	13
129.999999671782	0.2999267578125	145.777990631946	0.000199462890625	14
139.999999646534	0.2999267578125	155.777990606698	0.00020025634765625	15
149.999999621286	0.299896240234375	165.777990581451	0.000205352783203125	16
159.999999596039	0.300018310546875	175.777990556203	0.000197235107421875	17
169.999999570791	0.300048828125	185.777990530956	0.000189422607421875	18
179.999999545544	0.299896240234375	195.777990505708	0.000197998046875	19
189.999999520296	0.299896240234375	205.777990480461	0.000190948486328125	20
199.999999495049	0.299896240234375	215.777990455213	0.0001859130859375	21
209.999999469801	0.29998779296875	225.777990429965	0.000193328857421875	22
219.999999444553	0.29998779296875	235.777990404718	0.00018975830078125	23
229.999999419306	0.300018310546875	245.77799037947	0.0001834716796875	24
239.999999394058	0.2999267578125	255.777990354223	0.000188385009765625	25
249.999999368811	0.2999267578125	265.777990328975	0.00017901611328125	26
259.999999343563	0.299957275390625	275.777990303728	0.000187225341796875	27
269.999999318316	0.2999267578125	285.77799027848	0.0001778564453125	28
279.999999293068	0.299896240234375	295.777990253232	0.00017694091796875	29
289.99999926782	0.30010986328125	305.777990227985	0.000171142578125	30
299.999999242573	0.300048828125	315.777990202737	0.0001805419921875	31
309.999999217325	0.29998779296875	325.77799017749	0.000177825927734375	32
319.999999192078	0.2998046875	335.777990152242	0.00017022705078125	33
329.99999916683	0.29986572265625	345.777990126995	0.00016943359375	34
339.999999141583	0.2999267578125	355.777990101747	0.0001646728515625	35
349.999999116335	0.299896240234375	365.777990076499	0.000170257568359375	36
359.999999091087	0.29998779296875	375.777990051252	0.00016986083984375	37
369.99999906584	0.300048828125	385.777990026004	0.00017095947265625	38
379.999999040592	0.299896240234375	395.777990000757	0.00019818115234375	39
389.999999015345	0.29998779296875	405.777989975509	0.00015557861328125	40
399.999998990097	0.29998779296875	415.777989950261	0.000160552978515625	41
409.99999896485	0.299896240234375	425.777989925014	0.000157745361328125	42
419.999998939602	0.299957275390625	435.777989899766	0.00015997314453125	43
429.999998914354	0.300048828125	445.777989874519	0.00015521240234375	44
439.999998889107	0.300140380859375	455.777989849271	0.000152191162109375	45
449.999998863859	0.300048828125	465.777989824024	0.0001624755859375	46
459.999998838612	0.300018310546875	475.777989798776	0.00015606689453125	47
469.999998813364	0.29986572265625	485.777989773528	0.000158935546875	48
479.999998788117	0.30010986328125	495.777989748281	0.00014459228515625	49
489.999998762869	0.300018310546875	505.777989723033	0.000156280517578125	50
499.999998737621	0.2999267578125	515.777989697786	0.00015203857421875	51
509.999998712374	0.29998779296875	525.777989672538	0.000145233154296875	52
519.999998687126	0.29998779296875	535.777989647291	0.00014996337890625	53
529.999998661879	0.2999267578125	545.777989622043	0.00014874267578125	54
539.999998636631	0.29998779296875	555.777989596795	0.000156280517578125	55
549.999998611383	0.300048828125	565.777989571548	0.000143280029296875	56
559.999998586136	0.29986572265625	575.7779895463	0.0001409912109375	57
569.999998560888	0.29998779296875	585.777989521053	0.0001405029296875	58
579.999998535641	0.300018310546875	595.777989495805	0.000138031005859375	59
589.999998510393	0.299896240234375	605.777989470558	0.000132720947265625	60
599.999998485146	0.29998779296875	615.77798944531	0.0001395263671875	61
609.999998459898	0.30010986328125	625.777989420062	0.00013446044921875	62
619.99999843465	0.29998779296875	635.777989394815	0.0001319580078125	63
629.999998409403	0.29998779296875	645.777989369567	0.000133697509765625	64
639.999998384155	0.2999267578125	655.77798934432	0.000130218505859375	65
649.999998358908	0.299896240234375	665.777989319072	0.000132598876953125	66
659.99999833366	0.300018310546875	675.777989293825	0.0001319580078125	67
669.999998308413	0.300048828125	685.777989268577	0.000128082275390625	68
679.999998283165	0.300048828125	695.777989243329	0.00013690185546875	69
689.999998257917	0.300048828125	705.777989218082	0.00012786865234375	70
699.99999823267	0.300048828125	715.777989192834	0.00012353515625	71
709.999998207422	0.300018310546875	725.777989167587	0.000126739501953125	72
719.999998182175	0.2999267578125	735.777989142339	0.00012139892578125	73
729.999998156927	0.29986572265625	745.777989117092	0.000122833251953125	74
739.99999813168	0.299896240234375	755.777989091844	0.00012506103515625	75
749.999998106432	0.300048828125	765.777989066596	0.0001187744140625	76
759.999998081184	0.300048828125	775.777989041349	0.00011932373046875	77
769.999998055937	0.29998779296875	785.777989016101	0.000118377685546875	78
779.999998030689	0.30010986328125	795.777988990854	0.0001207275390625	79
789.999998005442	0.30010986328125	805.777988965606	0.000113189697265625	80
799.999997980194	0.300048828125	815.777988940359	0.000113983154296875	81
809.999997954947	0.299957275390625	825.777988915111	0.000116424560546875	82
819.999997929699	0.300018310546875	835.777988889863	0.00011273193359375	83
829.999997904451	0.299896240234375	845.777988864616	0.000113037109375	84
839.999997879204	0.2999267578125	855.777988839368	0.000113067626953125	85
849.999997853956	0.299957275390625	865.777988814121	0.000108795166015625	86
859.999997828709	0.299896240234375	875.777988788873	0.00011151123046875	87
869.999997803461	0.29998779296875	885.777988763626	0.0001080322265625	88
879.999997778214	0.299957275390625	895.777988738378	0.000110321044921875	89
889.999997752966	0.2999267578125	905.77798871313	0.0001036376953125	90
899.999997727718	0.2999267578125	915.777988687883	0.00010540771484375	91
909.999997702471	0.29998779296875	925.777988662635	0.000104339599609375	92
919.999997677223	0.29998779296875	935.777988637388	0.00010040283203125	93
929.999997651976	0.300018310546875	945.77798861214	0.00010809326171875	94
939.999997626728	0.29998779296875	955.777988586893	0.00010516357421875	95
949.999997601481	0.29998779296875	965.777988561645	0.000100341796875	96
959.999997576233	0.30010986328125	975.777988536397	0.00010076904296875	97
969.999997550985	0.300079345703125	985.77798851115	9.9884033203125E-05	98
979.999997525738	0.300079345703125	995.777988485902	0.00010052490234375	99
989.99999750049	0.30010986328125	1005.77798846065	9.8907470703125E-05	100
999.999997475243	0.30010986328125	1015.77798843541	9.9273681640625E-05	101
1009.99999745	0.300018310546875	1025.77798841016	9.7076416015625E-05	102
1019.99999742475	0.29998779296875	1035.77798838491	9.6923828125E-05	103
1029.9999973995	0.300018310546875	1045.77798835966	9.368896484375E-05	104
1039.99999737425	0.29986572265625	1055.77798833442	9.4879150390625E-05	105
1049.999997349	0.299957275390625	1065.77798830917	9.4940185546875E-05	106
1059.99999732376	0.299835205078125	1075.77798828392	9.5001220703125E-05	107
1069.99999729851	0.299835205078125	1085.77798825867	9.48486328125E-05	108
1079.99999727326	0.29974365234375	1095.77798823343	9.9578857421875E-05	109
1089.99999724801	0.2998046875	1105.77798820818	9.27734375E-05	110
1099.99999722277	0.299896240234375	1115.77798818293	8.7646484375E-05	111
1109.99999719752	0.299835205078125	1125.77798815768	8.6761474609375E-05	112
1119.99999717227	0.29986572265625	1135.77798813244	8.9385986328125E-05	113
1129.99999714702	0.299957275390625	1145.77798810719	8.67919921875E-05	114
1139.99999712178	0.2999267578125	1155.77798808194	8.6669921875E-05	115
1149.99999709653	0.299957275390625	1165.77798805669	9.55810546875E-05	116
1159.99999707128	0.299957275390625	1175.77798803145	8.209228515625E-05	117
1169.99999704603	0.299896240234375	1185.7779880062	8.4747314453125E-05	118
1179.99999702079	0.299835205078125	1195.77798798095	8.43505859375E-05	119
1189.99999699554	0.29998779296875	1205.7779879557	8.966064453125E-05	120
1199.99999697029	0.299896240234375	1215.77798793046	8.3831787109375E-05	121
1209.99999694504	0.299896240234375	1225.77798790521	8.2977294921875E-05	122
1219.9999969198	0.2999267578125	1235.77798787996	8.0413818359375E-05	123
1229.99999689455	0.29998779296875	1245.77798785471	7.916259765625E-05	124
1239.9999968693	0.299896240234375	1255.77798782947	8.0474853515625E-05	125
1249.99999684405	0.299896240234375	1265.77798780422	7.8582763671875E-05	126
1259.99999681881	0.299957275390625	1275.77798777897	7.958984375E-05	127
1269.99999679356	0.299957275390625	1285.77798775372	7.7239990234375E-05	128
1279.99999676831	0.299957275390625	1295.77798772848	7.6995849609375E-05	129
1289.99999674306	0.299896240234375	1305.77798770323	7.6904296875E-05	130
1299.99999671782	0.299835205078125	1315.77798767798	7.70263671875E-05	131
1309.99999669257	0.29974365234375	1325.77798765273	7.3699951171875E-05	132
1319.99999666732	0.299957275390625	1335.77798762748	7.666015625E-05	133
1329.99999664207	0.299957275390625	1345.77798760224	7.684326171875E-05	134
1339.99999661683	0.299896240234375	1355.77798757699	7.2601318359375E-05	135
1349.99999659158	0.2998046875	1365.77798755174	7.3394775390625E-05	136
1359.99999656633	0.299835205078125	1375.77798752649	7.3577880859375E-05	137
1369.99999654108	0.2998046875	1385.77798750125	7.2784423828125E-05	138
1379.99999651583	0.29998779296875	1395.777987476	7.0343017578125E-05	139
1389.99999649059	0.299774169921875	1405.77798745075	7.1685791015625E-05	140
1399.99999646534	0.299774169921875	1415.7779874255	7.037353515625E-05	141
1409.99999644009	0.29986572265625	1425.77798740026	6.903076171875E-05	142
1419.99999641484	0.299896240234375	1435.77798737501	6.8817138671875E-05	143
1429.9999963896	0.299896240234375	1445.77798734976	7.0526123046875E-05	144
1439.99999636435	0.299957275390625	1455.77798732451	6.866455078125E-05	145
1449.9999963391	0.29986572265625	1465.77798729927	6.939697265625E-05	146
1459.99999631385	0.29986572265625	1475.77798727402	6.793212890625E-05	147
1469.99999628861	0.300018310546875	1485.77798724877	6.689453125E-05	148
1479.99999626336	0.299896240234375	1495.77798722352	6.7138671875E-05	149
1489.99999623811	0.299957275390625	1505.77798719828	6.396484375E-05	150
1499.99999621286	0.299835205078125	1515.77798717303	6.597900390625E-05	151
1509.99999618762	0.2998046875	1525.77798714778	6.4117431640625E-05	152
1519.99999616237	0.299835205078125	1535.77798712253	6.60400390625E-05	153
1529.99999613712	0.29998779296875	1545.77798709729	6.5765380859375E-05	154
1539.99999611187	0.2999267578125	1555.77798707204	6.2469482421875E-05	155
1549.99999608663	0.299896240234375	1565.77798704679	6.2835693359375E-05	156
1559.99999606138	0.299957275390625	1575.77798702154	6.243896484375E-05	157
1569.99999603613	0.300018310546875	1585.7779869963	6.304931640625E-05	158
1579.99999601088	0.299957275390625	1595.77798697105	6.2774658203125E-05	159
1589.99999598564	0.299835205078125	1605.7779869458	6.06689453125E-05	160
1599.99999596039	0.2998046875	1615.77798692055	5.8685302734375E-05	161
1609.99999593514	0.299774169921875	1625.77798689531	6.15234375E-05	162
1619.99999590989	0.299896240234375	1635.77798687006	5.828857421875E-05	163
1629.99999588465	0.2998046875	1645.77798684481	6.16455078125E-05	164
1639.9999958594	0.2998046875	1655.77798681956	5.718994140625E-05	165
1649.99999583415	0.29986572265625	1665.77798679432	6.5948486328125E-05	166
1659.9999958089	0.299896240234375	1675.77798676907	5.6854248046875E-05	167
1669.99999578366	0.299896240234375	1685.77798674382	5.6915283203125E-05	168
1679.99999575841	0.2999267578125	1695.77798671857	5.865478515625E-05	169
1689.99999573316	0.2999267578125	1705.77798669332	5.8441162109375E-05	170
1699.99999570791	0.299957275390625	1715.77798666808	5.694580078125E-05	171
1709.99999568267	0.299835205078125	1725.77798664283	5.6976318359375E-05	172
1719.99999565742	0.299774169921875	1735.77798661758	5.670166015625E-05	173
1729.99999563217	0.2998046875	1745.77798659233	5.50537109375E-05	174
1739.99999560692	0.2998046875	1755.77798656709	5.401611328125E-05	175
1749.99999558167	0.29998779296875	1765.77798654184	5.5389404296875E-05	176
1759.99999555643	0.29998779296875	1775.77798651659	5.3680419921875E-05	177
1769.99999553118	0.29998779296875	1785.77798649134	5.5267333984375E-05	178
1779.99999550593	0.299896240234375	1795.7779864661	5.401611328125E-05	179
1789.99999548068	0.29986572265625	1805.77798644085	5.2734375E-05	180
1799.99999545544	0.2998046875	1815.7779864156	5.2032470703125E-05	181
1809.99999543019	0.299774169921875	1825.77798639035	5.1788330078125E-05	182
1819.99999540494	0.2998046875	1835.77798636511	5.279541015625E-05	183
1829.99999537969	0.29986572265625	1845.77798633986	5.2978515625E-05	184
1839.99999535445	0.29986572265625	1855.77798631461	4.9774169921875E-05	185
1849.9999953292	0.2999267578125	1865.77798628936	5.120849609375E-05	186
1859.99999530395	0.299896240234375	1875.77798626412	5.0506591796875E-05	187
1869.9999952787	0.29986572265625	1885.77798623887	4.9713134765625E-05	188
1879.99999525346	0.2998046875	1895.77798621362	5.029296875E-05	189
1889.99999522821	0.29986572265625	1905.77798618837	5.04150390625E-05	190
1899.99999520296	0.29974365234375	1915.77798616313	5.0018310546875E-05	191
1909.99999517771	0.2998046875	1925.77798613788	4.998779296875E-05	192
1919.99999515247	0.299835205078125	1935.77798611263	4.99267578125E-05	193
1929.99999512722	0.2999267578125	1945.77798608738	4.84619140625E-05	194
1939.99999510197	0.2998046875	1955.77798606214	4.82177734375E-05	195
1949.99999507672	0.299957275390625	1965.77798603689	4.8095703125E-05	196
1959.99999505148	0.299957275390625	1975.77798601164	4.986572265625E-05	197
1969.99999502623	0.29998779296875	1985.77798598639	4.6966552734375E-05	198
1979.99999500098	0.300018310546875	1995.77798596115	4.669189453125E-05	199
1989.99999497573	0.2998046875	2005.7779859359	4.53857421875E-05	200
1999.99999495049	0.29986572265625	2015.77798591065	4.7332763671875E-05	201
2009.99999492524	0.299835205078125	2025.7779858854	4.473876953125E-05	202
2019.99999489999	0.299835205078125	2035.77798586015	4.6173095703125E-05	203
2029.99999487474	0.299957275390625	2045.77798583491	4.54803466796875E-05	204
2039.9999948495	0.299896240234375	2055.77798580966	4.57733154296875E-05	205
2049.99999482425	0.2998046875	2065.77798578441	4.67529296875E-05	206
2059.999994799	0.2999267578125	2075.77798575916	4.3798828125E-05	207
2069.99999477375	0.29998779296875	2085.77798573392	4.3768310546875E-05	208
2079.9999947485	0.299896240234375	2095.77798570867	4.28955078125E-05	209
2089.99999472326	0.299835205078125	2105.77798568342	4.31976318359375E-05	210
2099.99999469801	0.299713134765625	2115.77798565817	4.38201904296875E-05	211
2109.99999467276	0.2998046875	2125.77798563293	4.4024658203125E-05	212
2119.99999464751	0.299774169921875	2135.77798560768	4.25384521484375E-05	213
2129.99999462227	0.299774169921875	2145.77798558243	4.27001953125E-05	214
2139.99999459702	0.2998046875	2155.77798555718	4.1693115234375E-05	215
2149.99999457177	0.299896240234375	2165.77798553194	4.185791015625E-05	216
2159.99999454652	0.299957275390625	2175.77798550669	4.09759521484375E-05	217
2169.99999452128	0.300018310546875	2185.77798548144	4.1802978515625E-05	218
2179.99999449603	0.29998779296875	2195.77798545619	4.06280517578125E-05	219
2189.99999447078	0.299957275390625	2205.77798543095	4.05609130859375E-05	220
2199.99999444553	0.299896240234375	2215.7779854057	4.22271728515625E-05	221
2209.99999442029	0.2998046875	2225.77798538045	4.1851806640625E-05	222
2219.99999439504	0.299835205078125	2235.7779853552	4.06402587890625E-05	223
2229.99999436979	0.29986572265625	2245.77798532996	4.08294677734375E-05	224
2239.99999434454	0.29986572265625	2255.77798530471	4.03167724609375E-05	225
2249.9999943193	0.29998779296875	2265.77798527946	4.0216064453125E-05	226
2259.99999429405	0.29986572265625	2275.77798525421	3.988037109375E-05	227
2269.9999942688	0.2999267578125	2285.77798522897	3.89068603515625E-05	228
2279.99999424355	0.29998779296875	2295.77798520372	4.08447265625E-05	229
2289.99999421831	0.300018310546875	2305.77798517847	3.8800048828125E-05	230
2299.99999419306	0.299957275390625	2315.77798515322	3.8470458984375E-05	231
2309.99999416781	0.300018310546875	2325.77798512798	3.907470703125E-05	232
2319.99999414256	0.2999267578125	2335.77798510273	3.85467529296875E-05	233
2329.99999411732	0.299835205078125	2345.77798507748	3.9373779296875E-05	234
2339.99999409207	0.2999267578125	2355.77798505223	3.82415771484375E-05	235
2349.99999406682	0.29986572265625	2365.77798502698	3.7677001953125E-05	236
2359.99999404157	0.299835205078125	2375.77798500174	3.70147705078125E-05	237
2369.99999401633	0.29986572265625	2385.77798497649	3.638916015625E-05	238
2379.99999399108	0.2998046875	2395.77798495124	3.9202880859375E-05	239
2389.99999396583	0.299957275390625	2405.77798492599	3.77227783203125E-05	240
2399.99999394058	0.2999267578125	2415.77798490075	3.641357421875E-05	241
2409.99999391533	0.2998046875	2425.7779848755	3.66973876953125E-05	242
2419.99999389009	0.2999267578125	2435.77798485025	3.64776611328125E-05	243
2429.99999386484	0.29986572265625	2445.777984825	3.63494873046875E-05	244
2439.99999383959	0.2998046875	2455.77798479976	3.62548828125E-05	245
2449.99999381434	0.299957275390625	2465.77798477451	3.61846923828125E-05	246
2459.9999937891	0.299957275390625	2475.77798474926	3.56109619140625E-05	247
2469.99999376385	0.29998779296875	2485.77798472401	3.51776123046875E-05	248
2479.9999937386	0.300048828125	2495.77798469877	3.67034912109375E-05	249
2489.99999371335	0.300048828125	2505.77798467352	3.55682373046875E-05	250
2499.99999368811	0.299957275390625	2515.77798464827	3.58795166015625E-05	251
2509.99999366286	0.299957275390625	2525.77798462302	3.47900390625E-05	252
2519.99999363761	0.29998779296875	2535.77798459778	3.45977783203125E-05	253
2529.99999361236	0.29986572265625	2545.77798457253	3.44329833984375E-05	254
2539.99999358712	0.2999267578125	2555.77798454728	3.4405517578125E-05	255
2549.99999356187	0.299896240234375	2565.77798452203	3.54278564453125E-05	256
2559.99999353662	0.2999267578125	2575.77798449679	3.46832275390625E-05	257
2569.99999351137	0.300018310546875	2585.77798447154	3.43109130859375E-05	258
2579.99999348613	0.299896240234375	2595.77798444629	3.42864990234375E-05	259
2589.99999346088	0.299835205078125	2605.77798442104	3.32611083984375E-05	260
2599.99999343563	0.29998779296875	2615.7779843958	3.4503173828125E-05	261
2609.99999341038	0.2999267578125	2625.77798437055	3.29345703125E-05	262
2619.99999338514	0.300018310546875	2635.7779843453	3.3123779296875E-05	263
2629.99999335989	0.29986572265625	2645.77798432005	3.2781982421875E-05	264
2639.99999333464	0.29986572265625	2655.77798429481	3.4051513671875E-05	265
2649.99999330939	0.299896240234375	2665.77798426956	3.29803466796875E-05	266
2659.99999328415	0.29986572265625	2675.77798424431	3.2476806640625E-05	267
2669.9999932589	0.29986572265625	2685.77798421906	3.212890625E-05	268
2679.99999323365	0.299896240234375	2695.77798419382	3.2623291015625E-05	269
2689.9999932084	0.300018310546875	2705.77798416857	3.2293701171875E-05	270
2699.99999318316	0.29998779296875	2715.77798414332	3.26568603515625E-05	271
2709.99999315791	0.300018310546875	2725.77798411807	3.27728271484375E-05	272
2719.99999313266	0.299957275390625	2735.77798409282	3.19244384765625E-05	273
2729.99999310741	0.300018310546875	2745.77798406758	3.1787109375E-05	274
2739.99999308217	0.299957275390625	2755.77798404233	3.18267822265625E-05	275
2749.99999305692	0.300018310546875	2765.77798401708	3.26080322265625E-05	276
2759.99999303167	0.29998779296875	2775.77798399183	3.1170654296875E-05	277
2769.99999300642	0.29998779296875	2785.77798396659	3.084716796875E-05	278
2779.99999298117	0.299957275390625	2795.77798394134	3.25714111328125E-05	279
2789.99999295593	0.29998779296875	2805.77798391609	3.08990478515625E-05	280
2799.99999293068	0.300048828125	2815.77798389084	3.11492919921875E-05	281
2809.99999290543	0.29998779296875	2825.7779838656	3.06732177734375E-05	282
2819.99999288018	0.300079345703125	2835.77798384035	3.09600830078125E-05	283
2829.99999285494	0.30010986328125	2845.7779838151	3.01361083984375E-05	284
2839.99999282969	0.2999267578125	2855.77798378985	2.98248291015625E-05	285
2849.99999280444	0.299896240234375	2865.77798376461	3.11767578125E-05	286
2859.99999277919	0.29986572265625	2875.77798373936	3.031005859375E-05	287
2869.99999275395	0.29998779296875	2885.77798371411	3.028564453125E-05	288
2879.9999927287	0.299957275390625	2895.77798368886	2.98980712890625E-05	289
2889.99999270345	0.300079345703125	2905.77798366362	3.05450439453125E-05	290
2899.9999926782	0.29998779296875	2915.77798363837	2.9449462890625E-05	291
2909.99999265296	0.299835205078125	2925.77798361312	2.95135498046875E-05	292
2919.99999262771	0.299896240234375	2935.77798358787	2.9937744140625E-05	293
2929.99999260246	0.29986572265625	2945.77798356263	2.98797607421875E-05	294
2939.99999257721	0.2999267578125	2955.77798353738	2.884521484375E-05	295
2949.99999255197	0.299896240234375	2965.77798351213	2.97637939453125E-05	296
2959.99999252672	0.299957275390625	2975.77798348688	2.97454833984375E-05	297
2969.99999250147	0.29998779296875	2985.77798346164	2.886962890625E-05	298
2979.99999247622	0.299896240234375	2995.77798343639	2.90618896484375E-05	299
2989.99999245098	0.29986572265625	3005.77798341114	2.8997802734375E-05	300
2999.99999242573	0.299835205078125	3015.77798338589	2.89794921875E-05	301
3009.99999240048	0.299957275390625	3025.77798336065	2.9095458984375E-05	302
3019.99999237523	0.29986572265625	3035.7779833354	3.00933837890625E-05	303
3029.99999234999	0.29998779296875	3045.77798331015	2.88726806640625E-05	304
3039.99999232474	0.300079345703125	3055.7779832849	2.87628173828125E-05	305
3049.99999229949	0.300018310546875	3065.77798325965	2.85552978515625E-05	306
3059.99999227424	0.299957275390625	3075.77798323441	2.86407470703125E-05	307
3069.999992249	0.299835205078125	3085.77798320916	2.79754638671875E-05	308
3079.99999222375	0.29986572265625	3095.77798318391	2.86651611328125E-05	309
3089.9999921985	0.299957275390625	3105.77798315866	2.81524658203125E-05	310
3099.99999217325	0.300018310546875	3115.77798313342	2.81158447265625E-05	311
3109.999992148	0.2999267578125	3125.77798310817	2.8582763671875E-05	312
3119.99999212276	0.2999267578125	3135.77798308292	2.7972412109375E-05	313
3129.99999209751	0.2999267578125	3145.77798305767	2.76611328125E-05	314
3139.99999207226	0.29998779296875	3155.77798303243	2.80914306640625E-05	315
3149.99999204701	0.300018310546875	3165.77798300718	2.852783203125E-05	316
3159.99999202177	0.300048828125	3175.77798298193	2.81829833984375E-05	317
3169.99999199652	0.300018310546875	3185.77798295668	2.779541015625E-05	318
3179.99999197127	0.300018310546875	3195.77798293144	2.816162109375E-05	319
3189.99999194602	0.299957275390625	3205.77798290619	2.763671875E-05	320
3199.99999192078	0.299957275390625	3215.77798288094	2.90985107421875E-05	321
3209.99999189553	0.300018310546875	3225.77798285569	2.724609375E-05	322
3219.99999187028	0.29998779296875	3235.77798283045	2.77923583984375E-05	323
3229.99999184503	0.2999267578125	3245.7779828052	2.74566650390625E-05	324
3239.99999181979	0.299957275390625	3255.77798277995	2.7801513671875E-05	325
3249.99999179454	0.299896240234375	3265.7779827547	2.74627685546875E-05	326
3259.99999176929	0.299896240234375	3275.77798272946	2.7349853515625E-05	327
3269.99999174404	0.299835205078125	3285.77798270421	2.900390625E-05	328
3279.9999917188	0.299896240234375	3295.77798267896	2.6861572265625E-05	329
3289.99999169355	0.29998779296875	3305.77798265371	2.67974853515625E-05	330
3299.9999916683	0.29998779296875	3315.77798262847	2.691650390625E-05	331
3309.99999164305	0.29998779296875	3325.77798260322	2.74688720703125E-05	332
3319.99999161781	0.29998779296875	3335.77798257797	2.7703857421875E-05	333
3329.99999159256	0.299957275390625	3345.77798255272	2.685546875E-05	334
3339.99999156731	0.300018310546875	3355.77798252748	2.662353515625E-05	335
3349.99999154206	0.300018310546875	3365.77798250223	2.63092041015625E-05	336
3359.99999151682	0.299835205078125	3375.77798247698	2.6690673828125E-05	337
3369.99999149157	0.299896240234375	3385.77798245173	2.6513671875E-05	338
3379.99999146632	0.299957275390625	3395.77798242648	2.66265869140625E-05	339
3389.99999144107	0.299896240234375	3405.77798240124	2.59521484375E-05	340
3399.99999141583	0.299896240234375	3415.77798237599	2.6202392578125E-05	341
3409.99999139058	0.2998046875	3425.77798235074	2.646484375E-05	342
3419.99999136533	0.29986572265625	3435.77798232549	2.7642822265625E-05	343
3429.99999134008	0.29998779296875	3445.77798230025	2.58941650390625E-05	344
3439.99999131483	0.300018310546875	3455.777982275	2.6190185546875E-05	345
3449.99999128959	0.30010986328125	3465.77798224975	2.674560546875E-05	346
3459.99999126434	0.29998779296875	3475.7779822245	2.68280029296875E-05	347
3469.99999123909	0.299957275390625	3485.77798219926	2.5653076171875E-05	348
3479.99999121384	0.29986572265625	3495.77798217401	2.61993408203125E-05	349
3489.9999911886	0.299896240234375	3505.77798214876	2.562255859375E-05	350
3499.99999116335	0.29998779296875	3515.77798212351	2.6495361328125E-05	351
3509.9999911381	0.300079345703125	3525.77798209827	2.62847900390625E-05	352
3519.99999111285	0.299957275390625	3535.77798207302	2.596435546875E-05	353
3529.99999108761	0.299896240234375	3545.77798204777	2.5750732421875E-05	354
3539.99999106236	0.299835205078125	3555.77798202252	2.57904052734375E-05	355
3549.99999103711	0.2998046875	3565.77798199728	2.6116943359375E-05	356
3559.99999101186	0.299896240234375	3575.77798197203	2.54364013671875E-05	357
3569.99999098662	0.300018310546875	3585.77798194678	2.56561279296875E-05	358
3579.99999096137	0.299957275390625	3595.77798192153	2.53173828125E-05	359
3589.99999093612	0.300048828125	3605.77798189629	2.64617919921875E-05	360
3599.99999091087	0.299896240234375	3615.77798187104	2.5341796875E-05	361
3609.99999088563	0.29986572265625	3625.77798184579	2.53936767578125E-05	362
3619.99999086038	0.2999267578125	3635.77798182054	2.5439453125E-05	363
3629.99999083513	0.299835205078125	3645.7779817953	2.64007568359375E-05	364
3639.99999080988	0.299835205078125	3655.77798177005	2.5E-05	365
3649.99999078464	0.29986572265625	3665.7779817448	2.5677490234375E-05	366
3659.99999075939	0.299896240234375	3675.77798171955	2.44537353515625E-05	367
3669.99999073414	0.300018310546875	3685.77798169431	2.581787109375E-05	368
3679.99999070889	0.300018310546875	3695.77798166906	2.4871826171875E-05	369
3689.99999068365	0.29998779296875	3705.77798164381	2.503662109375E-05	370
3699.9999906584	0.29986572265625	3715.77798161856	2.50640869140625E-05	371
3709.99999063315	0.29986572265625	3725.77798159332	2.44964599609375E-05	372
3719.9999906079	0.299896240234375	3735.77798156807	2.42889404296875E-05	373
3729.99999058266	0.2999267578125	3745.77798154282	2.4176025390625E-05	374
3739.99999055741	0.29986572265625	3755.77798151757	2.4261474609375E-05	375
3749.99999053216	0.299896240234375	3765.77798149232	2.4896240234375E-05	376
3759.99999050691	0.299896240234375	3775.77798146708	2.3931884765625E-05	377
3769.99999048167	0.299957275390625	3785.77798144183	2.44873046875E-05	378
3779.99999045642	0.299957275390625	3795.77798141658	2.459716796875E-05	379
3789.99999043117	0.299896240234375	3805.77798139133	2.4176025390625E-05	380
3799.99999040592	0.2999267578125	3815.77798136609	2.39044189453125E-05	381
3809.99999038067	0.300018310546875	3825.77798134084	2.459716796875E-05	382
3819.99999035543	0.300079345703125	3835.77798131559	2.459716796875E-05	383
3829.99999033018	0.300079345703125	3845.77798129034	2.42828369140625E-05	384
3839.99999030493	0.300018310546875	3855.7779812651	2.39990234375E-05	385
3849.99999027968	0.300048828125	3865.77798123985	2.38128662109375E-05	386
3859.99999025444	0.300018310546875	3875.7779812146	2.39105224609375E-05	387
3869.99999022919	0.2999267578125	3885.77798118935	2.45849609375E-05	388
3879.99999020394	0.300048828125	3895.77798116411	2.42156982421875E-05	389
3889.99999017869	0.300048828125	3905.77798113886	2.3870849609375E-05	390
3899.99999015345	0.29998779296875	3915.77798111361	2.41546630859375E-05	391
3909.9999901282	0.300018310546875	3925.77798108836	2.42279052734375E-05	392
3919.99999010295	0.299957275390625	3935.77798106312	2.39227294921875E-05	393
3929.9999900777	0.299896240234375	3945.77798103787	2.40203857421875E-05	394
3939.99999005246	0.29998779296875	3955.77798101262	2.3614501953125E-05	395
3949.99999002721	0.300018310546875	3965.77798098737	2.353515625E-05	396
3959.99999000196	0.300018310546875	3975.77798096213	2.44659423828125E-05	397
3969.99998997671	0.299957275390625	3985.77798093688	2.38922119140625E-05	398
3979.99998995147	0.300018310546875	3995.77798091163	2.32086181640625E-05	399
3989.99998992622	0.300048828125	4005.77798088638	2.33978271484375E-05	400
3999.99998990097	0.299896240234375	4015.77798086114	2.3486328125E-05	401
4009.99998987572	0.29998779296875	4025.77798083589	2.35504150390625E-05	402
4019.99998985048	0.29998779296875	4035.77798081064	2.32208251953125E-05	403
4029.99998982523	0.30010986328125	4045.77798078539	2.35443115234375E-05	404
4039.99998979998	0.29998779296875	4055.77798076015	2.36724853515625E-05	405
4049.99998977473	0.300018310546875	4065.7779807349	2.3785400390625E-05	406
4059.99998974949	0.29986572265625	4075.77798070965	2.3052978515625E-05	407
4069.99998972424	0.300018310546875	4085.7779806844	2.3065185546875E-05	408
4079.99998969899	0.300018310546875	4095.77798065915	2.3187255859375E-05	409
4089.99998967374	0.2999267578125	4105.77798063391	2.32818603515625E-05	410
4099.9999896485	0.29998779296875	4115.77798060866	2.33428955078125E-05	411
4109.99998962325	0.300018310546875	4125.77798058341	2.37762451171875E-05	412
4119.999989598	0.300018310546875	4135.77798055816	2.40631103515625E-05	413
4129.99998957275	0.30010986328125	4145.77798053292	2.3089599609375E-05	414
4139.9999895475	0.299896240234375	4155.77798050767	2.288818359375E-05	415
4149.99998952226	0.2999267578125	4165.77798048242	2.37762451171875E-05	416
4159.99998949701	0.299835205078125	4175.77798045717	2.298583984375E-05	417
4169.99998947176	0.299957275390625	4185.77798043193	2.298583984375E-05	418
4179.99998944651	0.2998046875	4195.77798040668	2.28363037109375E-05	419
4189.99998942127	0.299835205078125	4205.77798038143	2.3736572265625E-05	420
4199.99998939602	0.299896240234375	4215.77798035618	2.2869873046875E-05	421
4209.99998937077	0.299957275390625	4225.77798033094	2.3065185546875E-05	422
4219.99998934552	0.299957275390625	4235.77798030569	2.386474609375E-05	423
4229.99998932028	0.29998779296875	4245.77798028044	2.29766845703125E-05	424
4239.99998929503	0.300018310546875	4255.77798025519	2.32879638671875E-05	425
4249.99998926978	0.299957275390625	4265.77798022995	2.3284912109375E-05	426
4259.99998924453	0.2999267578125	4275.7779802047	2.24609375E-05	427
4269.99998921929	0.299957275390625	4285.77798017945	2.3016357421875E-05	428
4279.99998919404	0.29998779296875	4295.7779801542	2.2552490234375E-05	429
4289.99998916879	0.29998779296875	4305.77798012896	2.28851318359375E-05	430
4299.99998914354	0.300018310546875	4315.77798010371	2.26898193359375E-05	431
4309.9999891183	0.2999267578125	4325.77798007846	2.28271484375E-05	432
4319.99998909305	0.2999267578125	4335.77798005321	2.35137939453125E-05	433
4329.9999890678	0.299835205078125	4345.77798002797	2.291259765625E-05	434
4339.99998904255	0.299896240234375	4355.77798000272	2.28118896484375E-05	435
4349.99998901731	0.29998779296875	4365.77797997747	2.2601318359375E-05	436
4359.99998899206	0.300018310546875	4375.77797995222	2.2833251953125E-05	437
4369.99998896681	0.2999267578125	4385.77797992697	2.26104736328125E-05	438
4379.99998894156	0.299896240234375	4395.77797990173	2.30987548828125E-05	439
4389.99998891632	0.2999267578125	4405.77797987648	2.33367919921875E-05	440
4399.99998889107	0.299957275390625	4415.77797985123	2.2625732421875E-05	441
4409.99998886582	0.299957275390625	4425.77797982598	2.26318359375E-05	442
4419.99998884057	0.300018310546875	4435.77797980074	2.2686767578125E-05	443
4429.99998881533	0.29998779296875	4445.77797977549	2.2869873046875E-05	444
4439.99998879008	0.29998779296875	4455.77797975024	2.25250244140625E-05	445
4449.99998876483	0.299957275390625	4465.77797972499	2.27508544921875E-05	446
4459.99998873958	0.2999267578125	4475.77797969975	2.2686767578125E-05	447
4469.99998871433	0.299957275390625	4485.7779796745	2.2491455078125E-05	448
4479.99998868909	0.299957275390625	4495.77797964925	2.24761962890625E-05	449
4489.99998866384	0.300048828125	4505.777979624	2.26898193359375E-05	450
4499.99998863859	0.29998779296875	4515.77797959876	2.2528076171875E-05	451
4509.99998861334	0.300018310546875	4525.77797957351	2.20123291015625E-05	452
4519.9999885881	0.300079345703125	4535.77797954826	2.271728515625E-05	453
4529.99998856285	0.300018310546875	4545.77797952301	2.26470947265625E-05	454
4539.9999885376	0.2999267578125	4555.77797949777	2.2344970703125E-05	455
4549.99998851235	0.299896240234375	4565.77797947252	2.24334716796875E-05	456
4559.99998848711	0.29986572265625	4575.77797944727	2.29705810546875E-05	457
4569.99998846186	0.29986572265625	4585.77797942202	2.27203369140625E-05	458
4579.99998843661	0.299835205078125	4595.77797939678	2.254638671875E-05	459
4589.99998841136	0.299896240234375	4605.77797937153	2.2210693359375E-05	460
4599.99998838612	0.299896240234375	4615.77797934628	2.2503662109375E-05	461
4609.99998836087	0.299896240234375	4625.77797932103	2.26226806640625E-05	462
4619.99998833562	0.299957275390625	4635.77797929579	2.2900390625E-05	463
4629.99998831037	0.300018310546875	4645.77797927054	2.30621337890625E-05	464
4639.99998828513	0.300018310546875	4655.77797924529	2.21527099609375E-05	465
4649.99998825988	0.300079345703125	4665.77797922004	2.22076416015625E-05	466
4659.99998823463	0.300018310546875	4675.7779791948	2.257080078125E-05	467
4669.99998820938	0.299957275390625	4685.77797916955	2.32879638671875E-05	468
4679.99998818414	0.2999267578125	4695.7779791443	2.19390869140625E-05	469
4689.99998815889	0.299896240234375	4705.77797911905	2.31689453125E-05	470
4699.99998813364	0.299896240234375	4715.7779790938	2.237548828125E-05	471
4709.99998810839	0.299957275390625	4725.77797906856	2.22015380859375E-05	472
4719.99998808315	0.29998779296875	4735.77797904331	2.2137451171875E-05	473
4729.9999880579	0.29986572265625	4745.77797901806	2.200927734375E-05	474
4739.99998803265	0.299896240234375	4755.77797899281	2.2088623046875E-05	475
4749.9999880074	0.29986572265625	4765.77797896757	2.242431640625E-05	476
4759.99998798216	0.29998779296875	4775.77797894232	2.22991943359375E-05	477
4769.99998795691	0.2999267578125	4785.77797891707	2.2100830078125E-05	478
4779.99998793166	0.300048828125	4795.77797889182	2.25128173828125E-05	479
4789.99998790641	0.300018310546875	4805.77797886658	2.198486328125E-05	480
4799.99998788117	0.300018310546875	4815.77797884133	2.24761962890625E-05	481
4809.99998785592	0.29998779296875	4825.77797881608	2.25128173828125E-05	482
4819.99998783067	0.300048828125	4835.77797879083	2.17803955078125E-05	483
4829.99998780542	0.299957275390625	4845.77797876559	2.2259521484375E-05	484
4839.99998778017	0.299896240234375	4855.77797874034	2.20947265625E-05	485
4849.99998775493	0.299896240234375	4865.77797871509	2.21435546875E-05	486
4859.99998772968	0.299835205078125	4875.77797868984	2.1868896484375E-05	487
4869.99998770443	0.299896240234375	4885.7779786646	2.24578857421875E-05	488
4879.99998767918	0.299896240234375	4895.77797863935	2.22137451171875E-05	489
4889.99998765394	0.299896240234375	4905.7779786141	2.25189208984375E-05	490
4899.99998762869	0.2999267578125	4915.77797858885	2.20550537109375E-05	491
4909.99998760344	0.299835205078125	4925.77797856361	2.247314453125E-05	492
4919.99998757819	0.299896240234375	4935.77797853836	2.35260009765625E-05	493
4929.99998755295	0.29986572265625	4945.77797851311	2.1734619140625E-05	494
4939.9999875277	0.29986572265625	4955.77797848786	2.21893310546875E-05	495
4949.99998750245	0.2999267578125	4965.77797846262	2.20703125E-05	496
4959.9999874772	0.299835205078125	4975.77797843737	2.20550537109375E-05	497
4969.99998745196	0.2999267578125	4985.77797841212	2.2015380859375E-05	498
4979.99998742671	0.2998046875	4995.77797838687	2.25433349609375E-05	499
4989.99998740146	0.2999267578125	5005.77797836163	2.25128173828125E-05	500
4999.99998737621	0.299896240234375	5015.77797833638	2.2021484375E-05	501
5009.99998735097	0.299957275390625	5025.77797831113	2.17437744140625E-05	502
5019.99998732572	0.2999267578125	5035.77797828588	2.19940185546875E-05	503
5029.99998730047	0.29986572265625	5045.77797826063	2.21649169921875E-05	504
5039.99998727522	0.299896240234375	5055.77797823539	2.19451904296875E-05	505
5049.99998724998	0.299835205078125	5065.77797821014	2.21771240234375E-05	506
5059.99998722473	0.299957275390625	5075.77797818489	2.177734375E-05	507
5069.99998719948	0.300048828125	5085.77797815964	2.2027587890625E-05	508
5079.99998717423	0.2999267578125	5095.7779781344	2.21588134765625E-05	509
5089.99998714899	0.299957275390625	5105.77797810915	2.186279296875E-05	510
5099.99998712374	0.29998779296875	5115.7779780839	2.2100830078125E-05	511
5109.99998709849	0.29998779296875	5125.77797805865	2.19635009765625E-05	512
5119.99998707324	0.299957275390625	5135.77797803341	2.1917724609375E-05	513
5129.999987048	0.300018310546875	5145.77797800816	2.1771240234375E-05	514
5139.99998702275	0.300079345703125	5155.77797798291	2.174072265625E-05	515
5149.9999869975	0.300018310546875	5165.77797795766	2.183837890625E-05	516
5159.99998697225	0.300018310546875	5175.77797793242	2.156982421875E-05	517
5169.999986947	0.300018310546875	5185.77797790717	2.20794677734375E-05	518
5179.99998692176	0.2999267578125	5195.77797788192	2.15179443359375E-05	519
5189.99998689651	0.299957275390625	5205.77797785667	2.15667724609375E-05	520
5199.99998687126	0.2999267578125	5215.77797783143	2.17132568359375E-05	521
5209.99998684601	0.29986572265625	5225.77797780618	2.17315673828125E-05	522
5219.99998682077	0.299957275390625	5235.77797778093	2.2088623046875E-05	523
5229.99998679552	0.300079345703125	5245.77797775568	2.138671875E-05	524
5239.99998677027	0.29998779296875	5255.77797773044	2.2015380859375E-05	525
5249.99998674502	0.2999267578125	5265.77797770519	2.1826171875E-05	526
5259.99998671978	0.299896240234375	5275.77797767994	2.1746826171875E-05	527
5269.99998669453	0.29998779296875	5285.77797765469	2.17681884765625E-05	528
5279.99998666928	0.300048828125	5295.77797762945	2.142333984375E-05	529
5289.99998664403	0.299957275390625	5305.7779776042	2.1832275390625E-05	530
5299.99998661879	0.29986572265625	5315.77797757895	2.1844482421875E-05	531
5309.99998659354	0.299957275390625	5325.7779775537	2.1527099609375E-05	532
5319.99998656829	0.29998779296875	5335.77797752846	2.13287353515625E-05	533
5329.99998654304	0.299835205078125	5345.77797750321	2.16064453125E-05	534
5339.9999865178	0.299835205078125	5355.77797747796	2.17987060546875E-05	535
5349.99998649255	0.29998779296875	5365.77797745271	2.1783447265625E-05	536
5359.9999864673	0.299957275390625	5375.77797742747	2.12158203125E-05	537
5369.99998644205	0.300079345703125	5385.77797740222	2.1533203125E-05	538
5379.99998641681	0.299957275390625	5395.77797737697	2.1295166015625E-05	539
5389.99998639156	0.299896240234375	5405.77797735172	2.13409423828125E-05	540
5399.99998636631	0.300018310546875	5415.77797732647	2.13134765625E-05	541
5409.99998634106	0.300048828125	5425.77797730123	2.14599609375E-05	542
5419.99998631582	0.29998779296875	5435.77797727598	2.13623046875E-05	543
5429.99998629057	0.299957275390625	5445.77797725073	2.1319580078125E-05	544
5439.99998626532	0.299835205078125	5455.77797722548	2.13226318359375E-05	545
5449.99998624007	0.29998779296875	5465.77797720024	2.1490478515625E-05	546
5459.99998621483	0.2999267578125	5475.77797717499	2.159423828125E-05	547
5469.99998618958	0.299896240234375	5485.77797714974	2.1136474609375E-05	548
5479.99998616433	0.29986572265625	5495.77797712449	2.14752197265625E-05	549
5489.99998613908	0.300018310546875	5505.77797709925	2.108154296875E-05	550
5499.99998611383	0.300018310546875	5515.777977074	2.12554931640625E-05	551
5509.99998608859	0.299896240234375	5525.77797704875	2.152099609375E-05	552
5519.99998606334	0.299896240234375	5535.7779770235	2.13043212890625E-05	553
5529.99998603809	0.29998779296875	5545.77797699826	2.10906982421875E-05	554
5539.99998601284	0.300048828125	5555.77797697301	2.1209716796875E-05	555
5549.9999859876	0.29998779296875	5565.77797694776	2.12799072265625E-05	556
5559.99998596235	0.29986572265625	5575.77797692251	2.13775634765625E-05	557
5569.9999859371	0.299896240234375	5585.77797689727	2.17926025390625E-05	558
5579.99998591185	0.29998779296875	5595.77797687202	2.13134765625E-05	559
5589.99998588661	0.300018310546875	5605.77797684677	2.1160888671875E-05	560
5599.99998586136	0.300018310546875	5615.77797682152	2.15301513671875E-05	561
5609.99998583611	0.300048828125	5625.77797679628	2.1649169921875E-05	562
5619.99998581086	0.30010986328125	5635.77797677103	2.1331787109375E-05	563
5629.99998578562	0.29998779296875	5645.77797674578	2.108154296875E-05	564
5639.99998576037	0.299896240234375	5655.77797672053	2.09808349609375E-05	565
5649.99998573512	0.29986572265625	5665.77797669529	2.18536376953125E-05	566
5659.99998570987	0.29986572265625	5675.77797667004	2.1282958984375E-05	567
5669.99998568463	0.299835205078125	5685.77797664479	2.12677001953125E-05	568
5679.99998565938	0.299896240234375	5695.77797661954	2.09625244140625E-05	569
5689.99998563413	0.2999267578125	5705.7779765943	2.1343994140625E-05	570
5699.99998560888	0.300018310546875	5715.77797656905	2.13165283203125E-05	571
5709.99998558364	0.300048828125	5725.7779765438	2.19085693359375E-05	572
5719.99998555839	0.300048828125	5735.77797651855	2.14447021484375E-05	573
5729.99998553314	0.299957275390625	5745.7779764933	2.14691162109375E-05	574
5739.99998550789	0.300048828125	5755.77797646806	2.12371826171875E-05	575
5749.99998548265	0.300048828125	5765.77797644281	2.16094970703125E-05	576
5759.9999854574	0.300079345703125	5775.77797641756	2.14813232421875E-05	577
5769.99998543215	0.29998779296875	5785.77797639231	2.122802734375E-05	578
5779.9999854069	0.29986572265625	5795.77797636707	2.13897705078125E-05	579
5789.99998538166	0.299896240234375	5805.77797634182	2.174072265625E-05	580
5799.99998535641	0.29998779296875	5815.77797631657	2.103271484375E-05	581
5809.99998533116	0.300018310546875	5825.77797629132	2.13348388671875E-05	582
5819.99998530591	0.299957275390625	5835.77797626608	2.1112060546875E-05	583
5829.99998528067	0.29986572265625	5845.77797624083	2.13409423828125E-05	584
5839.99998525542	0.29986572265625	5855.77797621558	2.14324951171875E-05	585
5849.99998523017	0.29998779296875	5865.77797619033	2.12493896484375E-05	586
5859.99998520492	0.300048828125	5875.77797616509	2.1295166015625E-05	587
5869.99998517967	0.29998779296875	5885.77797613984	2.13897705078125E-05	588
5879.99998515443	0.29998779296875	5895.77797611459	2.14141845703125E-05	589
5889.99998512918	0.299957275390625	5905.77797608934	2.164306640625E-05	590
5899.99998510393	0.299896240234375	5915.7779760641	2.1624755859375E-05	591
5909.99998507868	0.29998779296875	5925.77797603885	2.16522216796875E-05	592
5919.99998505344	0.300048828125	5935.7779760136	2.14324951171875E-05	593
5929.99998502819	0.300079345703125	5945.77797598835	2.12310791015625E-05	594
5939.99998500294	0.300018310546875	5955.77797596311	2.12249755859375E-05	595
5949.99998497769	0.300048828125	5965.77797593786	2.1807861328125E-05	596
5959.99998495245	0.300018310546875	5975.77797591261	2.1307373046875E-05	597
5969.9999849272	0.300018310546875	5985.77797588736	2.17132568359375E-05	598
5979.99998490195	0.299896240234375	5995.77797586212	2.21710205078125E-05	599
5989.9999848767	0.29998779296875	6005.77797583687	2.14202880859375E-05	600
5999.99998485146	0.299957275390625	6015.77797581162	2.205810546875E-05	601
6009.99998482621	0.29998779296875	6025.77797578637	2.19879150390625E-05	602
6019.99998480096	0.2999267578125	6035.77797576113	2.18353271484375E-05	603
6029.99998477571	0.299957275390625	6045.77797573588	2.22442626953125E-05	604
6039.99998475047	0.299896240234375	6055.77797571063	2.283935546875E-05	605
6049.99998472522	0.29986572265625	6065.77797568538	2.1826171875E-05	606
6059.99998469997	0.2999267578125	6075.77797566013	2.264404296875E-05	607
6069.99998467472	0.299896240234375	6085.77797563489	2.2039794921875E-05	608
6079.99998464948	0.29998779296875	6095.77797560964	2.2320556640625E-05	609
6089.99998462423	0.300048828125	6105.77797558439	2.22503662109375E-05	610
6099.99998459898	0.300018310546875	6115.77797555914	2.19940185546875E-05	611
6109.99998457373	0.300048828125	6125.7779755339	2.232666015625E-05	612
6119.99998454849	0.29998779296875	6135.77797550865	2.2125244140625E-05	613
6129.99998452324	0.29998779296875	6145.7779754834	2.22808837890625E-05	614
6139.99998449799	0.299957275390625	6155.77797545815	2.22686767578125E-05	615
6149.99998447274	0.299957275390625	6165.77797543291	2.232666015625E-05	616
6159.9999844475	0.299957275390625	6175.77797540766	2.2308349609375E-05	617
6169.99998442225	0.299957275390625	6185.77797538241	2.3052978515625E-05	618
6179.999984397	0.299957275390625	6195.77797535716	2.27447509765625E-05	619
6189.99998437175	0.299957275390625	6205.77797533192	2.27996826171875E-05	620
6199.9999843465	0.299896240234375	6215.77797530667	2.20550537109375E-05	621
6209.99998432126	0.29998779296875	6225.77797528142	2.218017578125E-05	622
6219.99998429601	0.300048828125	6235.77797525617	2.22320556640625E-05	623
6229.99998427076	0.300018310546875	6245.77797523093	2.27081298828125E-05	624
6239.99998424551	0.300018310546875	6255.77797520568	2.22198486328125E-05	625
6249.99998422027	0.2999267578125	6265.77797518043	2.24945068359375E-05	626
6259.99998419502	0.2999267578125	6275.77797515518	2.23724365234375E-05	627
6269.99998416977	0.299835205078125	6285.77797512994	2.28302001953125E-05	628
6279.99998414452	0.299896240234375	6295.77797510469	2.21588134765625E-05	629
6289.99998411928	0.29986572265625	6305.77797507944	2.2589111328125E-05	630
6299.99998409403	0.299957275390625	6315.77797505419	2.21588134765625E-05	631
6309.99998406878	0.299896240234375	6325.77797502895	2.239990234375E-05	632
6319.99998404353	0.29986572265625	6335.7779750037	2.242431640625E-05	633
6329.99998401829	0.299957275390625	6345.77797497845	2.24578857421875E-05	634
6339.99998399304	0.2999267578125	6355.7779749532	2.23052978515625E-05	635
6349.99998396779	0.2999267578125	6365.77797492796	2.2344970703125E-05	636
6359.99998394254	0.299896240234375	6375.77797490271	2.22564697265625E-05	637
6369.9999839173	0.299896240234375	6385.77797487746	2.25067138671875E-05	638
6379.99998389205	0.29998779296875	6395.77797485221	2.242431640625E-05	639
6389.9999838668	0.2999267578125	6405.77797482697	2.215576171875E-05	640
6399.99998384155	0.300048828125	6415.77797480172	2.205810546875E-05	641
6409.99998381631	0.29998779296875	6425.77797477647	2.22625732421875E-05	642
6419.99998379106	0.299896240234375	6435.77797475122	2.218017578125E-05	643
6429.99998376581	0.299896240234375	6445.77797472597	2.23785400390625E-05	644
6439.99998374056	0.29998779296875	6455.77797470073	2.21221923828125E-05	645
6449.99998371532	0.29986572265625	6465.77797467548	2.25433349609375E-05	646
6459.99998369007	0.29986572265625	6475.77797465023	2.23297119140625E-05	647
6469.99998366482	0.299835205078125	6485.77797462498	2.20428466796875E-05	648
6479.99998363957	0.29986572265625	6495.77797459974	2.25067138671875E-05	649
6489.99998361433	0.2999267578125	6505.77797457449	2.21649169921875E-05	650
6499.99998358908	0.2999267578125	6515.77797454924	2.2064208984375E-05	651
6509.99998356383	0.2999267578125	6525.77797452399	2.22137451171875E-05	652
6519.99998353858	0.2999267578125	6535.77797449875	2.1746826171875E-05	653
6529.99998351333	0.29998779296875	6545.7779744735	2.2149658203125E-05	654
6539.99998348809	0.29998779296875	6555.77797444825	2.18536376953125E-05	655
6549.99998346284	0.300018310546875	6565.777974423	2.1893310546875E-05	656
6559.99998343759	0.300018310546875	6575.77797439776	2.177734375E-05	657
6569.99998341234	0.300018310546875	6585.77797437251	2.18475341796875E-05	658
6579.9999833871	0.300018310546875	6595.77797434726	2.18048095703125E-05	659
6589.99998336185	0.29998779296875	6605.77797432201	2.1978759765625E-05	660
6599.9999833366	0.29998779296875	6615.77797429677	2.17254638671875E-05	661
6609.99998331135	0.29998779296875	6625.77797427152	2.18597412109375E-05	662
6619.99998328611	0.300048828125	6635.77797424627	2.14874267578125E-05	663
6629.99998326086	0.2999267578125	6645.77797422102	2.19329833984375E-05	664
6639.99998323561	0.300018310546875	6655.77797419578	2.1728515625E-05	665
6649.99998321036	0.299957275390625	6665.77797417053	2.16033935546875E-05	666
6659.99998318512	0.29998779296875	6675.77797414528	2.15972900390625E-05	667
6669.99998315987	0.299896240234375	6685.77797412003	2.1417236328125E-05	668
6679.99998313462	0.299957275390625	6695.77797409479	2.13836669921875E-05	669
6689.99998310937	0.2999267578125	6705.77797406954	2.1630859375E-05	670
6699.99998308413	0.299896240234375	6715.77797404429	2.14508056640625E-05	671
6709.99998305888	0.299957275390625	6725.77797401904	2.12188720703125E-05	672
6719.99998303363	0.299896240234375	6735.7779739938	2.1441650390625E-05	673
6729.99998300838	0.2999267578125	6745.77797396855	2.164306640625E-05	674
6739.99998298314	0.2999267578125	6755.7779739433	2.1099853515625E-05	675
6749.99998295789	0.299957275390625	6765.77797391805	2.14019775390625E-05	676
6759.99998293264	0.29986572265625	6775.7779738928	2.14385986328125E-05	677
6769.99998290739	0.29986572265625	6785.77797386756	2.1337890625E-05	678
6779.99998288215	0.299957275390625	6795.77797384231	2.10693359375E-05	679
6789.9999828569	0.300018310546875	6805.77797381706	2.11181640625E-05	680
6799.99998283165	0.29998779296875	6815.77797379181	2.12677001953125E-05	681
6809.9999828064	0.29998779296875	6825.77797376657	2.1484375E-05	682
6819.99998278116	0.2999267578125	6835.77797374132	2.09381103515625E-05	683
6829.99998275591	0.299835205078125	6845.77797371607	2.1295166015625E-05	684
6839.99998273066	0.2999267578125	6855.77797369082	2.07794189453125E-05	685
6849.99998270541	0.299957275390625	6865.77797366558	2.0965576171875E-05	686
6859.99998268017	0.29998779296875	6875.77797364033	2.0941162109375E-05	687
6869.99998265492	0.300018310546875	6885.77797361508	2.06390380859375E-05	688
6879.99998262967	0.300048828125	6895.77797358983	2.08465576171875E-05	689
6889.99998260442	0.300079345703125	6905.77797356459	2.06817626953125E-05	690
6899.99998257917	0.300018310546875	6915.77797353934	2.10296630859375E-05	691
6909.99998255393	0.29998779296875	6925.77797351409	2.073974609375E-05	692
6919.99998252868	0.299957275390625	6935.77797348884	2.0648193359375E-05	693
6929.99998250343	0.300018310546875	6945.7779734636	2.0697021484375E-05	694
6939.99998247818	0.29998779296875	6955.77797343835	2.04010009765625E-05	695
6949.99998245294	0.300018310546875	6965.7779734131	2.07122802734375E-05	696
6959.99998242769	0.300018310546875	6975.77797338785	2.05230712890625E-05	697
6969.99998240244	0.29998779296875	6985.77797336261	2.071533203125E-05	698
6979.99998237719	0.299896240234375	6995.77797333736	2.04254150390625E-05	699
6989.99998235195	0.299896240234375	7005.77797331211	2.0184326171875E-05	700
6999.9999823267	0.300079345703125	7015.77797328686	2.03216552734375E-05	701
7009.99998230145	0.29998779296875	7025.77797326162	2.0489501953125E-05	702
7019.9999822762	0.299957275390625	7035.77797323637	2.0574951171875E-05	703
7029.99998225096	0.299835205078125	7045.77797321112	2.0703125E-05	704
7039.99998222571	0.2999267578125	7055.77797318587	2.034912109375E-05	705
7049.99998220046	0.30010986328125	7065.77797316063	2.0074462890625E-05	706
7059.99998217521	0.300018310546875	7075.77797313538	2.00714111328125E-05	707
7069.99998214997	0.2999267578125	7085.77797311013	1.98699951171875E-05	708
7079.99998212472	0.299896240234375	7095.77797308488	1.978759765625E-05	709
7089.99998209947	0.299835205078125	7105.77797305963	2.0086669921875E-05	710
7099.99998207422	0.299957275390625	7115.77797303439	2.001953125E-05	711
7109.99998204898	0.300079345703125	7125.77797300914	1.95068359375E-05	712
7119.99998202373	0.300079345703125	7135.77797298389	1.98577880859375E-05	713
7129.99998199848	0.300079345703125	7145.77797295864	2.00225830078125E-05	714
7139.99998197323	0.300048828125	7155.7779729334	1.9854736328125E-05	715
7149.99998194799	0.299957275390625	7165.77797290815	1.95556640625E-05	716
7159.99998192274	0.29998779296875	7175.7779728829	1.99859619140625E-05	717
7169.99998189749	0.299896240234375	7185.77797285765	1.95159912109375E-05	718
7179.99998187224	0.299896240234375	7195.77797283241	1.929931640625E-05	719
7189.999981847	0.299957275390625	7205.77797280716	1.95770263671875E-05	720
7199.99998182175	0.300018310546875	7215.77797278191	1.94580078125E-05	721
7209.9999817965	0.29998779296875	7225.77797275666	1.9427490234375E-05	722
7219.99998177125	0.2999267578125	7235.77797273142	1.92779541015625E-05	723
7229.999981746	0.2999267578125	7245.77797270617	1.93206787109375E-05	724
7239.99998172076	0.299957275390625	7255.77797268092	1.912841796875E-05	725
7249.99998169551	0.300018310546875	7265.77797265567	1.944580078125E-05	726
7259.99998167026	0.300018310546875	7275.77797263043	1.93695068359375E-05	727
7269.99998164501	0.2999267578125	7285.77797260518	1.93115234375E-05	728
7279.99998161977	0.300018310546875	7295.77797257993	1.9091796875E-05	729
7289.99998159452	0.300048828125	7305.77797255468	1.912841796875E-05	730
7299.99998156927	0.300018310546875	7315.77797252944	1.91009521484375E-05	731
7309.99998154402	0.299957275390625	7325.77797250419	1.88690185546875E-05	732
7319.99998151878	0.299957275390625	7335.77797247894	1.89056396484375E-05	733
7329.99998149353	0.299957275390625	7345.77797245369	1.883544921875E-05	734
7339.99998146828	0.29986572265625	7355.77797242845	1.8829345703125E-05	735
7349.99998144303	0.299896240234375	7365.7779724032	1.88232421875E-05	736
7359.99998141779	0.299957275390625	7375.77797237795	1.88995361328125E-05	737
7369.99998139254	0.299896240234375	7385.7779723527	1.9146728515625E-05	738
7379.99998136729	0.2999267578125	7395.77797232746	1.88446044921875E-05	739
7389.99998134204	0.300018310546875	7405.77797230221	1.88385009765625E-05	740
7399.9999813168	0.300018310546875	7415.77797227696	1.873779296875E-05	741
7409.99998129155	0.299957275390625	7425.77797225171	1.88018798828125E-05	742
7419.9999812663	0.2999267578125	7435.77797222647	1.89361572265625E-05	743
7429.99998124105	0.2999267578125	7445.77797220122	1.8951416015625E-05	744
7439.99998121581	0.2999267578125	7455.77797217597	1.86553955078125E-05	745
7449.99998119056	0.29986572265625	7465.77797215072	1.86370849609375E-05	746
7459.99998116531	0.299896240234375	7475.77797212547	1.86004638671875E-05	747
7469.99998114006	0.2999267578125	7485.77797210023	1.8719482421875E-05	748
7479.99998111482	0.2999267578125	7495.77797207498	1.8719482421875E-05	749
7489.99998108957	0.2999267578125	7505.77797204973	1.87957763671875E-05	750
7499.99998106432	0.2999267578125	7515.77797202448	1.866455078125E-05	751
7509.99998103907	0.29998779296875	7525.77797199924	1.89544677734375E-05	752
7519.99998101383	0.299957275390625	7535.77797197399	1.845703125E-05	753
7529.99998098858	0.300018310546875	7545.77797194874	1.8560791015625E-05	754
7539.99998096333	0.300018310546875	7555.77797192349	1.84600830078125E-05	755
7549.99998093808	0.29998779296875	7565.77797189825	1.83624267578125E-05	756
7559.99998091283	0.299957275390625	7575.777971873	1.82891845703125E-05	757
7569.99998088759	0.299957275390625	7585.77797184775	1.851806640625E-05	758
7579.99998086234	0.299896240234375	7595.7779718225	1.82647705078125E-05	759
7589.99998083709	0.299896240234375	7605.77797179726	1.8206787109375E-05	760
7599.99998081184	0.300018310546875	7615.77797177201	1.85760498046875E-05	761
7609.9999807866	0.300048828125	7625.77797174676	1.78619384765625E-05	762
7619.99998076135	0.300048828125	7635.77797172151	1.80633544921875E-05	763
7629.9999807361	0.300018310546875	7645.77797169627	1.7999267578125E-05	764
7639.99998071085	0.299957275390625	7655.77797167102	1.7889404296875E-05	765
7649.99998068561	0.299957275390625	7665.77797164577	1.80511474609375E-05	766
7659.99998066036	0.29998779296875	7675.77797162052	1.78253173828125E-05	767
7669.99998063511	0.299957275390625	7685.77797159528	1.80450439453125E-05	768
7679.99998060986	0.300048828125	7695.77797157003	1.77276611328125E-05	769
7689.99998058462	0.29998779296875	7705.77797154478	1.754150390625E-05	770
7699.99998055937	0.300079345703125	7715.77797151953	1.79168701171875E-05	771
7709.99998053412	0.300048828125	7725.77797149429	1.77886962890625E-05	772
7719.99998050887	0.29998779296875	7735.77797146904	1.7706298828125E-05	773
7729.99998048363	0.299896240234375	7745.77797144379	1.7376708984375E-05	774
7739.99998045838	0.2999267578125	7755.77797141854	1.75567626953125E-05	775
7749.99998043313	0.300018310546875	7765.7779713933	1.75018310546875E-05	776
7759.99998040788	0.300018310546875	7775.77797136805	1.74407958984375E-05	777
7769.99998038264	0.300048828125	7785.7779713428	1.737060546875E-05	778
7779.99998035739	0.300018310546875	7795.77797131755	1.73553466796875E-05	779
7789.99998033214	0.2999267578125	7805.7779712923	1.751708984375E-05	780
7799.99998030689	0.299896240234375	7815.77797126706	1.74346923828125E-05	781
7809.99998028165	0.299957275390625	7825.77797124181	1.707763671875E-05	782
7819.9999802564	0.29998779296875	7835.77797121656	1.7156982421875E-05	783
7829.99998023115	0.29998779296875	7845.77797119131	1.719970703125E-05	784
7839.9999802059	0.300048828125	7855.77797116607	1.71539306640625E-05	785
7849.99998018066	0.300079345703125	7865.77797114082	1.7059326171875E-05	786
7859.99998015541	0.300018310546875	7875.77797111557	1.712646484375E-05	787
7869.99998013016	0.29998779296875	7885.77797109032	1.69403076171875E-05	788
7879.99998010491	0.2998046875	7895.77797106508	1.71478271484375E-05	789
7889.99998007967	0.299957275390625	7905.77797103983	1.72698974609375E-05	790
7899.99998005442	0.300048828125	7915.77797101458	1.68853759765625E-05	791
7909.99998002917	0.29998779296875	7925.77797098933	1.697998046875E-05	792
7919.99998000392	0.29998779296875	7935.77797096409	1.74468994140625E-05	793
7929.99997997867	0.299896240234375	7945.77797093884	1.78924560546875E-05	794
7939.99997995343	0.299896240234375	7955.77797091359	1.87774658203125E-05	795
7949.99997992818	0.2999267578125	7965.77797088834	1.9317626953125E-05	796
7959.99997990293	0.2999267578125	7975.7779708631	1.9378662109375E-05	797
7969.99997987768	0.2999267578125	7985.77797083785	1.91436767578125E-05	798
7979.99997985244	0.2999267578125	7995.7779708126	1.92108154296875E-05	799
7989.99997982719	0.29998779296875	8005.77797078735	1.8780517578125E-05	800
7999.99997980194	0.300018310546875	8015.77797076211	1.90673828125E-05	801
8009.99997977669	0.300048828125	8025.77797073686	1.881103515625E-05	802
8019.99997975145	0.300018310546875	8035.77797071161	1.871337890625E-05	803
8029.9999797262	0.300018310546875	8045.77797068636	1.8511962890625E-05	804
8039.99997970095	0.2999267578125	8055.77797066112	1.84234619140625E-05	805
8049.9999796757	0.2998046875	8065.77797063587	1.8328857421875E-05	806
8059.99997965046	0.29998779296875	8075.77797061062	1.82037353515625E-05	807
8069.99997962521	0.300018310546875	8085.77797058537	1.8560791015625E-05	808
8079.99997959996	0.300048828125	8095.77797056013	1.82281494140625E-05	809
8089.99997957471	0.300048828125	8105.77797053488	1.80419921875E-05	810
8099.99997954947	0.30010986328125	8115.77797050963	1.8170166015625E-05	811
8109.99997952422	0.29998779296875	8125.77797048438	1.81854248046875E-05	812
8119.99997949897	0.300018310546875	8135.77797045913	1.81365966796875E-05	813
