Corrected time (s);WE(1).Current (A);Time (s);WE(1).Potential (V);Index
0;0.00049774169921875;16.1902309591236;0.8001708984375;1
9.99999997475243;0.000463775634765625;26.190230933876;0.80078125;2
19.9999999495049;0.000477813720703125;36.1902309086285;0.8001708984375;3
29.9999999242573;0.0004852294921875;46.1902308833809;0.8001708984375;4
39.9999998990097;0.000464202880859375;56.1902308581333;0.79986572265625;5
49.9999998737621;0.000447052001953125;66.1902308328857;0.799560546875;6
59.9999998485146;0.000392822265625;76.1902308076382;0.79986572265625;7
69.999999823267;0.0004949951171875;86.1902307823906;0.79986572265625;8
79.9999997980194;0.000424835205078125;96.190230757143;0.799560546875;9
89.9999997727718;0.000432464599609375;106.190230731895;0.80047607421875;10
99.9999997475243;0.000390167236328125;116.190230706648;0.799560546875;11
109.999999722277;0.000387939453125;126.1902306814;0.799560546875;12
119.999999697029;0.000419158935546875;136.190230656153;0.79925537109375;13
129.999999671782;0.000381439208984375;146.190230630905;0.79986572265625;14
139.999999646534;0.000381988525390625;156.190230605658;0.79986572265625;15
149.999999621286;0.0003572998046875;166.19023058041;0.79925537109375;16
159.999999596039;0.00036639404296875;176.190230555162;0.8001708984375;17
169.999999570791;0.000401611328125;186.190230529915;0.79986572265625;18
179.999999545544;0.000390411376953125;196.190230504667;0.79986572265625;19
189.999999520296;0.000421142578125;206.19023047942;0.79986572265625;20
199.999999495049;0.000414398193359375;216.190230454172;0.79986572265625;21
209.999999469801;0.00038409423828125;226.190230428925;0.79986572265625;22
219.999999444553;0.000357635498046875;236.190230403677;0.79986572265625;23
229.999999419306;0.000364105224609375;246.190230378429;0.799560546875;24
239.999999394058;0.000339569091796875;256.190230353182;0.8001708984375;25
249.999999368811;0.000335052490234375;266.190230327934;0.79986572265625;26
259.999999343563;0.000378326416015625;276.190230302687;0.799560546875;27
269.999999318316;0.0003240966796875;286.190230277439;0.79986572265625;28
279.999999293068;0.0003218994140625;296.190230252192;0.799560546875;29
289.99999926782;0.00033099365234375;306.190230226944;0.79864501953125;30
299.999999242573;0.000309844970703125;316.190230201696;0.8001708984375;31
309.999999217325;0.00031005859375;326.190230176449;0.799560546875;32
319.999999192078;0.00030523681640625;336.190230151201;0.80047607421875;33
329.99999916683;0.00031463623046875;346.190230125954;0.8001708984375;34
339.999999141583;0.00032598876953125;356.190230100706;0.79986572265625;35
349.999999116335;0.000359130859375;366.190230075459;0.799560546875;36
359.999999091087;0.000350128173828125;376.190230050211;0.79986572265625;37
369.99999906584;0.000289215087890625;386.190230024963;0.79986572265625;38
379.999999040592;0.000283233642578125;396.190229999716;0.79925537109375;39
389.999999015345;0.000283416748046875;406.190229974468;0.79925537109375;40
399.999998990097;0.00029852294921875;416.190229949221;0.7989501953125;41
409.99999896485;0.0002767333984375;426.190229923973;0.799560546875;42
419.999998939602;0.0002825927734375;436.190229898726;0.79986572265625;43
429.999998914354;0.0002860107421875;446.190229873478;0.799560546875;44
439.999998889107;0.000279296875;456.19022984823;0.79864501953125;45
449.999998863859;0.000279876708984375;466.190229822983;0.7989501953125;46
459.999998838612;0.000292449951171875;476.190229797735;0.79925537109375;47
469.999998813364;0.000278411865234375;486.190229772488;0.799560546875;48
479.999998788117;0.000255523681640625;496.19022974724;0.79986572265625;49
489.999998762869;0.00030010986328125;506.190229721993;0.799560546875;50
499.999998737621;0.000367340087890625;516.190229696745;0.79925537109375;51
509.999998712374;0.000460205078125;526.190229671497;0.79986572265625;52
519.999998687126;0.00036932373046875;536.19022964625;0.80047607421875;53
529.999998661879;0.000269622802734375;546.190229621002;0.799560546875;54
539.999998636631;0.00028204345703125;556.190229595755;0.79925537109375;55
549.999998611383;0.0002532958984375;566.190229570507;0.799560546875;56
559.999998586136;0.000268280029296875;576.19022954526;0.80078125;57
569.999998560888;0.000258026123046875;586.190229520012;0.799560546875;58
579.999998535641;0.00023883056640625;596.190229494764;0.8001708984375;59
589.999998510393;0.0002496337890625;606.190229469517;0.79986572265625;60
599.999998485146;0.000271331787109375;616.190229444269;0.79925537109375;61
609.999998459898;0.00023699951171875;626.190229419022;0.799560546875;62
619.99999843465;0.000225128173828125;636.190229393774;0.799560546875;63
629.999998409403;0.000235107421875;646.190229368527;0.79986572265625;64
639.999998384155;0.00024896240234375;656.190229343279;0.79986572265625;65
649.999998358908;0.0002469482421875;666.190229318031;0.79986572265625;66
659.99999833366;0.000250030517578125;676.190229292784;0.79986572265625;67
669.999998308413;0.00024981689453125;686.190229267536;0.79925537109375;68
679.999998283165;0.000215362548828125;696.190229242289;0.79986572265625;69
689.999998257917;0.0002344970703125;706.190229217041;0.80078125;70
699.99999823267;0.00021319580078125;716.190229191793;0.799560546875;71
709.999998207422;0.000217987060546875;726.190229166546;0.79925537109375;72
719.999998182175;0.000209930419921875;736.190229141298;0.79925537109375;73
729.999998156927;0.000205780029296875;746.190229116051;0.79925537109375;74
739.99999813168;0.00020703125;756.190229090803;0.8001708984375;75
749.999998106432;0.000218017578125;766.190229065556;0.80078125;76
759.999998081184;0.00021917724609375;776.190229040308;0.80047607421875;77
769.999998055937;0.00020904541015625;786.19022901506;0.80078125;78
779.999998030689;0.0002042236328125;796.190228989813;0.79925537109375;79
789.999998005442;0.000226776123046875;806.190228964565;0.79986572265625;80
799.999997980194;0.00020172119140625;816.190228939318;0.799560546875;81
809.999997954947;0.000213226318359375;826.19022891407;0.79925537109375;82
819.999997929699;0.00019586181640625;836.190228888823;0.799560546875;83
829.999997904451;0.000190032958984375;846.190228863575;0.79986572265625;84
839.999997879204;0.00018963623046875;856.190228838327;0.80047607421875;85
849.999997853956;0.000186187744140625;866.19022881308;0.79986572265625;86
859.999997828709;0.0001807861328125;876.190228787832;0.79925537109375;87
869.999997803461;0.00019219970703125;886.190228762585;0.8001708984375;88
879.999997778214;0.000182769775390625;896.190228737337;0.799560546875;89
889.999997752966;0.00015496826171875;906.19022871209;0.8001708984375;90
899.999997727718;0.0001678466796875;916.190228686842;0.79986572265625;91
909.999997702471;0.00017523193359375;926.190228661594;0.79925537109375;92
919.999997677223;0.00018463134765625;936.190228636347;0.79986572265625;93
929.999997651976;0.0001932373046875;946.190228611099;0.799560546875;94
939.999997626728;0.00015740966796875;956.190228585852;0.79986572265625;95
949.999997601481;0.00015423583984375;966.190228560604;0.80047607421875;96
959.999997576233;0.000179412841796875;976.190228535357;0.79986572265625;97
969.999997550985;0.00015802001953125;986.190228510109;0.799560546875;98
979.999997525738;0.00016241455078125;996.190228484861;0.80047607421875;99
989.99999750049;0.00016424560546875;1006.19022845961;0.79925537109375;100
999.999997475243;0.00015570068359375;1016.19022843437;0.79986572265625;101
1009.99999745;0.0001885986328125;1026.19022840912;0.8001708984375;102
1019.99999742475;0.000168792724609375;1036.19022838387;0.799560546875;103
1029.9999973995;0.000154754638671875;1046.19022835862;0.79925537109375;104
1039.99999737425;0.000169830322265625;1056.19022833338;0.79986572265625;105
1049.999997349;0.0001719970703125;1066.19022830813;0.8001708984375;106
1059.99999732376;0.0001732177734375;1076.19022828288;0.80078125;107
1069.99999729851;0.00015631103515625;1086.19022825763;0.8001708984375;108
1079.99999727326;0.0001678466796875;1096.19022823239;0.799560546875;109
1089.99999724801;0.000159820556640625;1106.19022820714;0.8001708984375;110
1099.99999722277;0.000147064208984375;1116.19022818189;0.79986572265625;111
1109.99999719752;0.000142730712890625;1126.19022815664;0.80047607421875;112
1119.99999717227;0.000147186279296875;1136.1902281314;0.799560546875;113
1129.99999714702;0.0001541748046875;1146.19022810615;0.799560546875;114
1139.99999712178;0.000141082763671875;1156.1902280809;0.799560546875;115
1149.99999709653;0.00015478515625;1166.19022805565;0.799560546875;116
1159.99999707128;0.00014312744140625;1176.19022803041;0.79925537109375;117
1169.99999704603;0.000130706787109375;1186.19022800516;0.79986572265625;118
1179.99999702079;0.000148162841796875;1196.19022797991;0.79986572265625;119
1189.99999699554;0.000130859375;1206.19022795466;0.8001708984375;120
1199.99999697029;0.00012896728515625;1216.19022792942;0.79986572265625;121
1209.99999694504;0.00012933349609375;1226.19022790417;0.80047607421875;122
1219.9999969198;0.000138671875;1236.19022787892;0.79864501953125;123
1229.99999689455;0.000131134033203125;1246.19022785367;0.799560546875;124
1239.9999968693;0.000136505126953125;1256.19022782842;0.799560546875;125
1249.99999684405;0.000142822265625;1266.19022780318;0.799560546875;126
1259.99999681881;0.00013153076171875;1276.19022777793;0.8001708984375;127
1269.99999679356;0.0001317138671875;1286.19022775268;0.79925537109375;128
1279.99999676831;0.000126373291015625;1296.19022772743;0.799560546875;129
1289.99999674306;0.00011334228515625;1306.19022770219;0.79986572265625;130
1299.99999671782;0.000125762939453125;1316.19022767694;0.799560546875;131
1309.99999669257;0.00011895751953125;1326.19022765169;0.79986572265625;132
1319.99999666732;0.000122467041015625;1336.19022762644;0.7989501953125;133
1329.99999664207;0.000116424560546875;1346.1902276012;0.80047607421875;134
1339.99999661683;0.000114166259765625;1356.19022757595;0.8001708984375;135
1349.99999659158;0.000121978759765625;1366.1902275507;0.80047607421875;136
1359.99999656633;0.00011932373046875;1376.19022752545;0.79986572265625;137
1369.99999654108;0.000118133544921875;1386.19022750021;0.79925537109375;138
1379.99999651583;0.000107635498046875;1396.19022747496;0.79986572265625;139
1389.99999649059;0.000109161376953125;1406.19022744971;0.799560546875;140
1399.99999646534;9.6923828125E-05;1416.19022742446;0.79986572265625;141
1409.99999644009;0.000104583740234375;1426.19022739922;0.79986572265625;142
1419.99999641484;0.0001124267578125;1436.19022737397;0.799560546875;143
1429.9999963896;0.000101226806640625;1446.19022734872;0.8001708984375;144
1439.99999636435;9.942626953125E-05;1456.19022732347;0.79986572265625;145
1449.9999963391;9.552001953125E-05;1466.19022729823;0.79986572265625;146
1459.99999631385;0.00010711669921875;1476.19022727298;0.79925537109375;147
1469.99999628861;0.00010296630859375;1486.19022724773;0.79864501953125;148
1479.99999626336;0.000105255126953125;1496.19022722248;0.79986572265625;149
1489.99999623811;9.3994140625E-05;1506.19022719724;0.79925537109375;150
1499.99999621286;9.9365234375E-05;1516.19022717199;0.79986572265625;151
1509.99999618762;0.000100250244140625;1526.19022714674;0.8001708984375;152
1519.99999616237;9.63134765625E-05;1536.19022712149;0.8001708984375;153
1529.99999613712;9.7320556640625E-05;1546.19022709625;0.8001708984375;154
1539.99999611187;9.6893310546875E-05;1556.190227071;0.79986572265625;155
1549.99999608663;9.08203125E-05;1566.19022704575;0.8001708984375;156
1559.99999606138;9.478759765625E-05;1576.1902270205;0.79986572265625;157
1569.99999603613;8.3984375E-05;1586.19022699525;0.8001708984375;158
1579.99999601088;9.75341796875E-05;1596.19022697001;0.799560546875;159
1589.99999598564;8.709716796875E-05;1606.19022694476;0.79986572265625;160
1599.99999596039;9.0728759765625E-05;1616.19022691951;0.80047607421875;161
1609.99999593514;8.8470458984375E-05;1626.19022689426;0.8001708984375;162
1619.99999590989;9.2742919921875E-05;1636.19022686902;0.799560546875;163
1629.99999588465;8.9080810546875E-05;1646.19022684377;0.799560546875;164
1639.9999958594;8.26416015625E-05;1656.19022681852;0.79986572265625;165
1649.99999583415;8.5784912109375E-05;1666.19022679327;0.7989501953125;166
1659.9999958089;9.60693359375E-05;1676.19022676803;0.80047607421875;167
1669.99999578366;7.2967529296875E-05;1686.19022674278;0.799560546875;168
1679.99999575841;7.940673828125E-05;1696.19022671753;0.79925537109375;169
1689.99999573316;7.916259765625E-05;1706.19022669228;0.79986572265625;170
1699.99999570791;7.8369140625E-05;1716.19022666704;0.799560546875;171
1709.99999568267;7.208251953125E-05;1726.19022664179;0.799560546875;172
1719.99999565742;7.1319580078125E-05;1736.19022661654;0.79986572265625;173
1729.99999563217;8.1756591796875E-05;1746.19022659129;0.7989501953125;174
1739.99999560692;7.9681396484375E-05;1756.19022656605;0.799560546875;175
1749.99999558167;8.5601806640625E-05;1766.1902265408;0.8001708984375;176
1759.99999555643;7.65380859375E-05;1776.19022651555;0.8001708984375;177
1769.99999553118;7.171630859375E-05;1786.1902264903;0.79925537109375;178
1779.99999550593;8.0078125E-05;1796.19022646506;0.799560546875;179
1789.99999548068;7.51953125E-05;1806.19022643981;0.799560546875;180
1799.99999545544;7.080078125E-05;1816.19022641456;0.79986572265625;181
1809.99999543019;7.7178955078125E-05;1826.19022638931;0.79986572265625;182
1819.99999540494;6.6192626953125E-05;1836.19022636407;0.799560546875;183
1829.99999537969;6.87255859375E-05;1846.19022633882;0.8001708984375;184
1839.99999535445;7.281494140625E-05;1856.19022631357;0.80047607421875;185
1849.9999953292;7.5042724609375E-05;1866.19022628832;0.8001708984375;186
1859.99999530395;7.281494140625E-05;1876.19022626308;0.79925537109375;187
1869.9999952787;7.12890625E-05;1886.19022623783;0.799560546875;188
1879.99999525346;6.182861328125E-05;1896.19022621258;0.79986572265625;189
1889.99999522821;6.2255859375E-05;1906.19022618733;0.799560546875;190
1899.99999520296;6.9580078125E-05;1916.19022616208;0.79925537109375;191
1909.99999517771;6.48193359375E-05;1926.19022613684;0.79925537109375;192
1919.99999515247;6.396484375E-05;1936.19022611159;0.8001708984375;193
1929.99999512722;6.4453125E-05;1946.19022608634;0.799560546875;194
1939.99999510197;6.7138671875E-05;1956.19022606109;0.79986572265625;195
1949.99999507672;6.5704345703125E-05;1966.19022603585;0.8001708984375;196
1959.99999505148;5.8624267578125E-05;1976.1902260106;0.8001708984375;197
1969.99999502623;5.7037353515625E-05;1986.19022598535;0.799560546875;198
1979.99999500098;5.975341796875E-05;1996.1902259601;0.799560546875;199
1989.99999497573;5.8837890625E-05;2006.19022593486;0.79986572265625;200
1999.99999495049;6.787109375E-05;2016.19022590961;0.79925537109375;201
2009.99999492524;5.4168701171875E-05;2026.19022588436;0.79986572265625;202
2019.99999489999;6.280517578125E-05;2036.19022585911;0.79986572265625;203
2029.99999487474;5.712890625E-05;2046.19022583387;0.799560546875;204
2039.9999948495;6.4239501953125E-05;2056.19022580862;0.8001708984375;205
2049.99999482425;6.01806640625E-05;2066.19022578337;0.80078125;206
2059.999994799;6.024169921875E-05;2076.19022575812;0.79925537109375;207
2069.99999477375;5.62744140625E-05;2086.19022573288;0.799560546875;208
2079.9999947485;6.3018798828125E-05;2096.19022570763;0.79925537109375;209
2089.99999472326;5.5694580078125E-05;2106.19022568238;0.79925537109375;210
2099.99999469801;6.3018798828125E-05;2116.19022565713;0.79986572265625;211
2109.99999467276;5.511474609375E-05;2126.19022563189;0.79986572265625;212
2119.99999464751;6.011962890625E-05;2136.19022560664;0.79925537109375;213
2129.99999462227;6.0791015625E-05;2146.19022558139;0.80047607421875;214
2139.99999459702;5.0689697265625E-05;2156.19022555614;0.79986572265625;215
2149.99999457177;5.963134765625E-05;2166.1902255309;0.799560546875;216
2159.99999454652;6.1004638671875E-05;2176.19022550565;0.8001708984375;217
2169.99999452128;6.0577392578125E-05;2186.1902254804;0.79986572265625;218
2179.99999449603;5.810546875E-05;2196.19022545515;0.79925537109375;219
2189.99999447078;4.6051025390625E-05;2206.19022542991;0.8001708984375;220
2199.99999444553;5.6793212890625E-05;2216.19022540466;0.80047607421875;221
2209.99999442029;5.841064453125E-05;2226.19022537941;0.8001708984375;222
2219.99999439504;5.7220458984375E-05;2236.19022535416;0.79986572265625;223
2229.99999436979;6.3873291015625E-05;2246.19022532891;0.79986572265625;224
2239.99999434454;5.4901123046875E-05;2256.19022530367;0.8001708984375;225
2249.9999943193;5.6915283203125E-05;2266.19022527842;0.8001708984375;226
2259.99999429405;4.888916015625E-05;2276.19022525317;0.79986572265625;227
2269.9999942688;4.5379638671875E-05;2286.19022522792;0.8001708984375;228
2279.99999424355;4.35791015625E-05;2296.19022520268;0.79986572265625;229
2289.99999421831;4.3365478515625E-05;2306.19022517743;0.79925537109375;230
2299.99999419306;4.9224853515625E-05;2316.19022515218;0.80047607421875;231
2309.99999416781;5.108642578125E-05;2326.19022512693;0.79986572265625;232
2319.99999414256;5.5938720703125E-05;2336.19022510169;0.79986572265625;233
2329.99999411732;5.1727294921875E-05;2346.19022507644;0.79986572265625;234
2339.99999409207;5.517578125E-05;2356.19022505119;0.80078125;235
2349.99999406682;5.279541015625E-05;2366.19022502594;0.799560546875;236
2359.99999404157;5.0384521484375E-05;2376.1902250007;0.79986572265625;237
2369.99999401633;4.07989501953125E-05;2386.19022497545;0.80108642578125;238
2379.99999399108;5.7403564453125E-05;2396.1902249502;0.799560546875;239
2389.99999396583;4.345703125E-05;2406.19022492495;0.79986572265625;240
2399.99999394058;5.267333984375E-05;2416.19022489971;0.80047607421875;241
2409.99999391533;5.194091796875E-05;2426.19022487446;0.799560546875;242
2419.99999389009;5.2398681640625E-05;2436.19022484921;0.799560546875;243
2429.99999386484;4.974365234375E-05;2446.19022482396;0.79986572265625;244
2439.99999383959;4.2144775390625E-05;2456.19022479872;0.79986572265625;245
2449.99999381434;5.218505859375E-05;2466.19022477347;0.80047607421875;246
2459.9999937891;4.4342041015625E-05;2476.19022474822;0.79986572265625;247
2469.99999376385;4.8126220703125E-05;2486.19022472297;0.7989501953125;248
2479.9999937386;3.7823486328125E-05;2496.19022469773;0.8001708984375;249
2489.99999371335;4.144287109375E-05;2506.19022467248;0.79986572265625;250
2499.99999368811;4.0069580078125E-05;2516.19022464723;0.80108642578125;251
2509.99999366286;3.80859375E-05;2526.19022462198;0.79986572265625;252
2519.99999363761;4.0496826171875E-05;2536.19022459674;0.8001708984375;253
2529.99999361236;3.8238525390625E-05;2546.19022457149;0.799560546875;254
2539.99999358712;5.0048828125E-05;2556.19022454624;0.7989501953125;255
2549.99999356187;3.814697265625E-05;2566.19022452099;0.799560546875;256
2559.99999353662;3.7060546875E-05;2576.19022449575;0.80047607421875;257
2569.99999351137;4.4219970703125E-05;2586.1902244705;0.799560546875;258
2579.99999348613;4.2999267578125E-05;2596.19022444525;0.8001708984375;259
2589.99999346088;4.986572265625E-05;2606.19022442;0.7989501953125;260
2599.99999343563;3.83819580078125E-05;2616.19022439475;0.79864501953125;261
2609.99999341038;3.8665771484375E-05;2626.19022436951;0.79925537109375;262
2619.99999338514;4.833984375E-05;2636.19022434426;0.799560546875;263
2629.99999335989;4.0191650390625E-05;2646.19022431901;0.799560546875;264
2639.99999333464;3.6199951171875E-05;2656.19022429376;0.79986572265625;265
2649.99999330939;3.55712890625E-05;2666.19022426852;0.799560546875;266
2659.99999328415;4.144287109375E-05;2676.19022424327;0.79986572265625;267
2669.9999932589;4.47998046875E-05;2686.19022421802;0.79986572265625;268
2679.99999323365;4.0618896484375E-05;2696.19022419277;0.79986572265625;269
2689.9999932084;3.343505859375E-05;2706.19022416753;0.7989501953125;270
2699.99999318316;3.40576171875E-05;2716.19022414228;0.8001708984375;271
2709.99999315791;3.6041259765625E-05;2726.19022411703;0.8001708984375;272
2719.99999313266;3.6834716796875E-05;2736.19022409178;0.799560546875;273
2729.99999310741;3.53851318359375E-05;2746.19022406654;0.799560546875;274
2739.99999308217;3.583984375E-05;2756.19022404129;0.79986572265625;275
2749.99999305692;3.436279296875E-05;2766.19022401604;0.8001708984375;276
2759.99999303167;4.74853515625E-05;2776.19022399079;0.79986572265625;277
2769.99999300642;4.1107177734375E-05;2786.19022396555;0.799560546875;278
2779.99999298117;4.6783447265625E-05;2796.1902239403;0.8001708984375;279
2789.99999295593;4.632568359375E-05;2806.19022391505;0.8001708984375;280
2799.99999293068;3.7750244140625E-05;2816.1902238898;0.79986572265625;281
2809.99999290543;4.79736328125E-05;2826.19022386456;0.8001708984375;282
2819.99999288018;3.43414306640625E-05;2836.19022383931;0.80108642578125;283
2829.99999285494;3.21807861328125E-05;2846.19022381406;0.8001708984375;284
2839.99999282969;4.4647216796875E-05;2856.19022378881;0.7989501953125;285
2849.99999280444;4.69970703125E-05;2866.19022376357;0.80078125;286
2859.99999277919;4.47998046875E-05;2876.19022373832;0.799560546875;287
2869.99999275395;3.8787841796875E-05;2886.19022371307;0.8001708984375;288
2879.9999927287;4.4097900390625E-05;2896.19022368782;0.79986572265625;289
2889.99999270345;4.4891357421875E-05;2906.19022366258;0.80047607421875;290
2899.9999926782;4.5318603515625E-05;2916.19022363733;0.80047607421875;291
2909.99999265296;3.2122802734375E-05;2926.19022361208;0.80047607421875;292
2919.99999262771;3.3447265625E-05;2936.19022358683;0.79986572265625;293
2929.99999260246;3.13262939453125E-05;2946.19022356158;0.79986572265625;294
2939.99999257721;4.4891357421875E-05;2956.19022353634;0.79986572265625;295
2949.99999255197;3.86138916015625E-05;2966.19022351109;0.79986572265625;296
2959.99999252672;3.424072265625E-05;2976.19022348584;0.79925537109375;297
2969.99999250147;4.5806884765625E-05;2986.19022346059;0.79986572265625;298
2979.99999247622;4.47998046875E-05;2996.19022343535;0.80047607421875;299
2989.99999245098;3.1304931640625E-05;3006.1902234101;0.80047607421875;300
2999.99999242573;4.35791015625E-05;3016.19022338485;0.799560546875;301
3009.99999240048;4.1748046875E-05;3026.1902233596;0.79986572265625;302
3019.99999237523;4.339599609375E-05;3036.19022333436;0.79986572265625;303
3029.99999234999;4.1229248046875E-05;3046.19022330911;0.799560546875;304
3039.99999232474;4.1900634765625E-05;3056.19022328386;0.79986572265625;305
3049.99999229949;3.9947509765625E-05;3066.19022325861;0.80047607421875;306
3059.99999227424;2.928466796875E-05;3076.19022323337;0.799560546875;307
3069.999992249;3.0364990234375E-05;3086.19022320812;0.79925537109375;308
3079.99999222375;3.470458984375E-05;3096.19022318287;0.799560546875;309
3089.9999921985;3.90869140625E-05;3106.19022315762;0.80078125;310
3099.99999217325;4.2083740234375E-05;3116.19022313238;0.79925537109375;311
3109.999992148;3.55133056640625E-05;3126.19022310713;0.799560546875;312
3119.99999212276;3.11492919921875E-05;3136.19022308188;0.8001708984375;313
3129.99999209751;3.76190185546875E-05;3146.19022305663;0.8001708984375;314
3139.99999207226;3.482666015625E-05;3156.19022303139;0.79986572265625;315
3149.99999204701;4.16259765625E-05;3166.19022300614;0.8001708984375;316
3159.99999202177;2.81341552734375E-05;3176.19022298089;0.799560546875;317
3169.99999199652;4.071044921875E-05;3186.19022295564;0.79986572265625;318
3179.99999197127;3.055419921875E-05;3196.1902229304;0.8001708984375;319
3189.99999194602;3.7615966796875E-05;3206.19022290515;0.80047607421875;320
3199.99999192078;3.17413330078125E-05;3216.1902228799;0.80108642578125;321
3209.99999189553;3.38714599609375E-05;3226.19022285465;0.799560546875;322
3219.99999187028;3.8116455078125E-05;3236.19022282941;0.8001708984375;323
3229.99999184503;3.51287841796875E-05;3246.19022280416;0.8001708984375;324
3239.99999181979;4.1290283203125E-05;3256.19022277891;0.79986572265625;325
3249.99999179454;3.82080078125E-05;3266.19022275366;0.7989501953125;326
3259.99999176929;3.78265380859375E-05;3276.19022272841;0.7989501953125;327
3269.99999174404;3.9459228515625E-05;3286.19022270317;0.79986572265625;328
3279.9999917188;2.91839599609375E-05;3296.19022267792;0.799560546875;329
3289.99999169355;3.79119873046875E-05;3306.19022265267;0.79986572265625;330
3299.9999916683;3.62579345703125E-05;3316.19022262742;0.7989501953125;331
3309.99999164305;3.699951171875E-05;3326.19022260218;0.79986572265625;332
3319.99999161781;2.8515625E-05;3336.19022257693;0.799560546875;333
3329.99999159256;2.81494140625E-05;3346.19022255168;0.799560546875;334
3339.99999156731;2.900390625E-05;3356.19022252643;0.79986572265625;335
3349.99999154206;3.86962890625E-05;3366.19022250119;0.7989501953125;336
3359.99999151682;2.9364013671875E-05;3376.19022247594;0.79986572265625;337
3369.99999149157;3.51776123046875E-05;3386.19022245069;0.8001708984375;338
3379.99999146632;3.582763671875E-05;3396.19022242544;0.799560546875;339
3389.99999144107;3.8970947265625E-05;3406.1902224002;0.79986572265625;340
3399.99999141583;3.28704833984375E-05;3416.19022237495;0.79925537109375;341
3409.99999139058;3.2025146484375E-05;3426.1902223497;0.799560546875;342
3419.99999136533;2.84637451171875E-05;3436.19022232445;0.79986572265625;343
3429.99999134008;3.74420166015625E-05;3446.19022229921;0.79925537109375;344
3439.99999131483;2.76763916015625E-05;3456.19022227396;0.80108642578125;345
3449.99999128959;3.3258056640625E-05;3466.19022224871;0.80047607421875;346
3459.99999126434;3.63525390625E-05;3476.19022222346;0.799560546875;347
3469.99999123909;3.802490234375E-05;3486.19022219822;0.80047607421875;348
3479.99999121384;3.27484130859375E-05;3496.19022217297;0.79986572265625;349
3489.9999911886;3.13079833984375E-05;3506.19022214772;0.79925537109375;350
3499.99999116335;3.59039306640625E-05;3516.19022212247;0.80047607421875;351
3509.9999911381;2.9461669921875E-05;3526.19022209723;0.79986572265625;352
