Corrected time (s);WE(1).Current (A);Time (s);WE(1).Potential (V);Index
0;0.0003916015625;15.980161959654;0.79986572265625;1
9.99999997475243;0.00038995361328125;25.9801619344064;0.799560546875;2
19.9999999495049;0.00037445068359375;35.9801619091588;0.79925537109375;3
29.9999999242573;0.0003648681640625;45.9801618839113;0.8001708984375;4
39.9999998990097;0.000358154296875;55.9801618586637;0.79925537109375;5
49.9999998737621;0.00036663818359375;65.9801618334161;0.79925537109375;6
59.9999998485146;0.00035662841796875;75.9801618081685;0.79986572265625;7
69.999999823267;0.000348480224609375;85.980161782921;0.799560546875;8
79.9999997980194;0.000338287353515625;95.9801617576734;0.799560546875;9
89.9999997727718;0.000332977294921875;105.980161732426;0.799560546875;10
99.9999997475243;0.0003375244140625;115.980161707178;0.79986572265625;11
109.999999722277;0.0003326416015625;125.980161681931;0.79925537109375;12
119.999999697029;0.000326629638671875;135.980161656683;0.799560546875;13
129.999999671782;0.000324798583984375;145.980161631436;0.79925537109375;14
139.999999646534;0.00031927490234375;155.980161606188;0.799560546875;15
149.999999621286;0.0003167724609375;165.98016158094;0.79925537109375;16
159.999999596039;0.000308135986328125;175.980161555693;0.79925537109375;17
169.999999570791;0.0003055419921875;185.980161530445;0.79925537109375;18
179.999999545544;0.00029827880859375;195.980161505198;0.799560546875;19
189.999999520296;0.00030194091796875;205.98016147995;0.799560546875;20
199.999999495049;0.0002933349609375;215.980161454703;0.79986572265625;21
209.999999469801;0.000294586181640625;225.980161429455;0.79925537109375;22
219.999999444553;0.0002900390625;235.980161404207;0.79925537109375;23
229.999999419306;0.00027947998046875;245.98016137896;0.799560546875;24
239.999999394058;0.000277496337890625;255.980161353712;0.79986572265625;25
249.999999368811;0.0002835693359375;265.980161328465;0.79925537109375;26
259.999999343563;0.000268768310546875;275.980161303217;0.79986572265625;27
269.999999318316;0.000268463134765625;285.98016127797;0.799560546875;28
279.999999293068;0.000259429931640625;295.980161252722;0.799560546875;29
289.99999926782;0.00026544189453125;305.980161227474;0.79925537109375;30
299.999999242573;0.00025604248046875;315.980161202227;0.7989501953125;31
309.999999217325;0.000261932373046875;325.980161176979;0.79925537109375;32
319.999999192078;0.000255096435546875;335.980161151732;0.79925537109375;33
329.99999916683;0.000254669189453125;345.980161126484;0.79925537109375;34
339.999999141583;0.000247314453125;355.980161101236;0.799560546875;35
349.999999116335;0.00024493408203125;365.980161075989;0.799560546875;36
359.999999091087;0.000246673583984375;375.980161050741;0.799560546875;37
369.99999906584;0.00023736572265625;385.980161025494;0.79986572265625;38
379.999999040592;0.0002349853515625;395.980161000246;0.799560546875;39
389.999999015345;0.00023175048828125;405.980160974999;0.79925537109375;40
399.999998990097;0.00023065185546875;415.980160949751;0.79986572265625;41
409.99999896485;0.000229339599609375;425.980160924503;0.79925537109375;42
419.999998939602;0.00022296142578125;435.980160899256;0.799560546875;43
429.999998914354;0.000223175048828125;445.980160874008;0.79986572265625;44
439.999998889107;0.000222991943359375;455.980160848761;0.799560546875;45
449.999998863859;0.000216796875;465.980160823513;0.79986572265625;46
459.999998838612;0.000217193603515625;475.980160798266;0.79986572265625;47
469.999998813364;0.00021295166015625;485.980160773018;0.79986572265625;48
479.999998788117;0.000211944580078125;495.98016074777;0.799560546875;49
489.999998762869;0.000205657958984375;505.980160722523;0.79925537109375;50
499.999998737621;0.000206329345703125;515.980160697275;0.79986572265625;51
509.999998712374;0.00020745849609375;525.980160672028;0.799560546875;52
519.999998687126;0.000206024169921875;535.98016064678;0.799560546875;53
529.999998661879;0.000197601318359375;545.980160621533;0.79986572265625;54
539.999998636631;0.00019970703125;555.980160596285;0.79925537109375;55
549.999998611383;0.00019287109375;565.980160571037;0.79925537109375;56
559.999998586136;0.000194854736328125;575.98016054579;0.7989501953125;57
569.999998560888;0.00018841552734375;585.980160520542;0.799560546875;58
579.999998535641;0.000188385009765625;595.980160495295;0.7989501953125;59
589.999998510393;0.0001844482421875;605.980160470047;0.79986572265625;60
599.999998485146;0.000186187744140625;615.9801604448;0.79925537109375;61
609.999998459898;0.000181365966796875;625.980160419552;0.79925537109375;62
619.99999843465;0.0001810302734375;635.980160394304;0.79925537109375;63
629.999998409403;0.000178985595703125;645.980160369057;0.79925537109375;64
639.999998384155;0.000179107666015625;655.980160343809;0.799560546875;65
649.999998358908;0.00017694091796875;665.980160318562;0.79986572265625;66
659.99999833366;0.00017401123046875;675.980160293314;0.79986572265625;67
669.999998308413;0.000171295166015625;685.980160268067;0.799560546875;68
679.999998283165;0.000172393798828125;695.980160242819;0.7989501953125;69
689.999998257917;0.00016705322265625;705.980160217571;0.79925537109375;70
699.99999823267;0.0001690673828125;715.980160192324;0.79925537109375;71
709.999998207422;0.00016461181640625;725.980160167076;0.799560546875;72
719.999998182175;0.000165313720703125;735.980160141829;0.79925537109375;73
729.999998156927;0.000161102294921875;745.980160116581;0.799560546875;74
739.99999813168;0.00016162109375;755.980160091334;0.79986572265625;75
749.999998106432;0.000162567138671875;765.980160066086;0.79986572265625;76
759.999998081184;0.0001519775390625;775.980160040838;0.79925537109375;77
769.999998055937;0.000156707763671875;785.980160015591;0.79925537109375;78
779.999998030689;0.000156280517578125;795.980159990343;0.79986572265625;79
789.999998005442;0.00015679931640625;805.980159965096;0.799560546875;80
799.999997980194;0.000151702880859375;815.980159939848;0.79925537109375;81
809.999997954947;0.000148101806640625;825.980159914601;0.79925537109375;82
819.999997929699;0.000148406982421875;835.980159889353;0.799560546875;83
829.999997904451;0.00014691162109375;845.980159864105;0.79925537109375;84
839.999997879204;0.000144500732421875;855.980159838858;0.79925537109375;85
849.999997853956;0.000142059326171875;865.98015981361;0.79986572265625;86
859.999997828709;0.000142608642578125;875.980159788363;0.7989501953125;87
869.999997803461;0.000140899658203125;885.980159763115;0.799560546875;88
879.999997778214;0.000138916015625;895.980159737868;0.799560546875;89
889.999997752966;0.00013995361328125;905.98015971262;0.79925537109375;90
899.999997727718;0.000138397216796875;915.980159687372;0.799560546875;91
909.999997702471;0.000135467529296875;925.980159662125;0.79925537109375;92
919.999997677223;0.00013592529296875;935.980159636877;0.7989501953125;93
929.999997651976;0.000132537841796875;945.98015961163;0.79925537109375;94
939.999997626728;0.00013140869140625;955.980159586382;0.799560546875;95
949.999997601481;0.000129791259765625;965.980159561135;0.79986572265625;96
959.999997576233;0.000129364013671875;975.980159535887;0.799560546875;97
969.999997550985;0.000125030517578125;985.980159510639;0.799560546875;98
979.999997525738;0.00012542724609375;995.980159485392;0.79986572265625;99
989.99999750049;0.000127349853515625;1005.98015946014;0.799560546875;100
999.999997475243;0.0001229248046875;1015.9801594349;0.799560546875;101
1009.99999745;0.000122283935546875;1025.98015940965;0.79925537109375;102
1019.99999742475;0.0001234130859375;1035.9801593844;0.799560546875;103
1029.9999973995;0.00012042236328125;1045.98015935915;0.79925537109375;104
1039.99999737425;0.00012225341796875;1055.98015933391;0.79925537109375;105
1049.999997349;0.000118804931640625;1065.98015930866;0.79986572265625;106
1059.99999732376;0.000119140625;1075.98015928341;0.79925537109375;107
1069.99999729851;0.00012054443359375;1085.98015925816;0.79925537109375;108
1079.99999727326;0.000114501953125;1095.98015923292;0.79986572265625;109
1089.99999724801;0.000115692138671875;1105.98015920767;0.7989501953125;110
1099.99999722277;0.00011224365234375;1115.98015918242;0.79986572265625;111
1109.99999719752;0.00011346435546875;1125.98015915717;0.79986572265625;112
1119.99999717227;0.000112548828125;1135.98015913193;0.79925537109375;113
1129.99999714702;0.000109161376953125;1145.98015910668;0.799560546875;114
1139.99999712178;0.000109527587890625;1155.98015908143;0.79925537109375;115
1149.99999709653;0.000110137939453125;1165.98015905618;0.79925537109375;116
1159.99999707128;0.000108367919921875;1175.98015903094;0.79925537109375;117
1169.99999704603;0.00010687255859375;1185.98015900569;0.79986572265625;118
1179.99999702079;0.000107269287109375;1195.98015898044;0.799560546875;119
1189.99999699554;0.0001065673828125;1205.98015895519;0.799560546875;120
1199.99999697029;0.000104461669921875;1215.98015892995;0.799560546875;121
1209.99999694504;0.000103118896484375;1225.9801589047;0.799560546875;122
1219.9999969198;0.00010205078125;1235.98015887945;0.79986572265625;123
1229.99999689455;0.00010546875;1245.9801588542;0.799560546875;124
1239.9999968693;0.00010211181640625;1255.98015882895;0.799560546875;125
1249.99999684405;0.000101837158203125;1265.98015880371;0.79925537109375;126
1259.99999681881;0.000102203369140625;1275.98015877846;0.799560546875;127
1269.99999679356;9.8785400390625E-05;1285.98015875321;0.79986572265625;128
1279.99999676831;9.9090576171875E-05;1295.98015872796;0.799560546875;129
1289.99999674306;9.85107421875E-05;1305.98015870272;0.799560546875;130
1299.99999671782;9.869384765625E-05;1315.98015867747;0.79986572265625;131
1309.99999669257;9.5977783203125E-05;1325.98015865222;0.799560546875;132
1319.99999666732;9.4940185546875E-05;1335.98015862697;0.799560546875;133
1329.99999664207;9.4757080078125E-05;1345.98015860173;0.79986572265625;134
1339.99999661683;9.3780517578125E-05;1355.98015857648;0.799560546875;135
1349.99999659158;9.4085693359375E-05;1365.98015855123;0.799560546875;136
1359.99999656633;9.295654296875E-05;1375.98015852598;0.79986572265625;137
1369.99999654108;9.3109130859375E-05;1385.98015850074;0.799560546875;138
1379.99999651583;9.3109130859375E-05;1395.98015847549;0.799560546875;139
1389.99999649059;9.173583984375E-05;1405.98015845024;0.799560546875;140
1399.99999646534;8.9263916015625E-05;1415.98015842499;0.79925537109375;141
1409.99999644009;8.8165283203125E-05;1425.98015839975;0.79925537109375;142
1419.99999641484;8.9385986328125E-05;1435.9801583745;0.799560546875;143
1429.9999963896;8.8592529296875E-05;1445.98015834925;0.79925537109375;144
1439.99999636435;8.8653564453125E-05;1455.980158324;0.799560546875;145
1449.9999963391;8.978271484375E-05;1465.98015829876;0.799560546875;146
1459.99999631385;8.7371826171875E-05;1475.98015827351;0.799560546875;147
1469.99999628861;8.5662841796875E-05;1485.98015824826;0.799560546875;148
1479.99999626336;8.5662841796875E-05;1495.98015822301;0.79986572265625;149
1489.99999623811;8.489990234375E-05;1505.98015819777;0.799560546875;150
1499.99999621286;8.6334228515625E-05;1515.98015817252;0.799560546875;151
1509.99999618762;8.3465576171875E-05;1525.98015814727;0.799560546875;152
1519.99999616237;8.4869384765625E-05;1535.98015812202;0.79986572265625;153
1529.99999613712;8.53271484375E-05;1545.98015809678;0.799560546875;154
1539.99999611187;8.3526611328125E-05;1555.98015807153;0.799560546875;155
1549.99999608663;8.3221435546875E-05;1565.98015804628;0.799560546875;156
1559.99999606138;8.197021484375E-05;1575.98015802103;0.799560546875;157
1569.99999603613;7.940673828125E-05;1585.98015799579;0.7989501953125;158
1579.99999601088;8.203125E-05;1595.98015797054;0.79986572265625;159
1589.99999598564;8.1207275390625E-05;1605.98015794529;0.799560546875;160
1599.99999596039;7.958984375E-05;1615.98015792004;0.79925537109375;161
1609.99999593514;8.09326171875E-05;1625.98015789479;0.7989501953125;162
1619.99999590989;7.940673828125E-05;1635.98015786955;0.79925537109375;163
1629.99999588465;7.9437255859375E-05;1645.9801578443;0.799560546875;164
1639.9999958594;7.8643798828125E-05;1655.98015781905;0.79925537109375;165
1649.99999583415;7.9193115234375E-05;1665.9801577938;0.79925537109375;166
1659.9999958089;7.8948974609375E-05;1675.98015776856;0.7989501953125;167
1669.99999578366;7.9193115234375E-05;1685.98015774331;0.79986572265625;168
1679.99999575841;7.7178955078125E-05;1695.98015771806;0.799560546875;169
1689.99999573316;7.82470703125E-05;1705.98015769281;0.799560546875;170
1699.99999570791;7.666015625E-05;1715.98015766757;0.8001708984375;171
1709.99999568267;7.5592041015625E-05;1725.98015764232;0.79925537109375;172
1719.99999565742;7.6202392578125E-05;1735.98015761707;0.799560546875;173
1729.99999563217;7.5347900390625E-05;1745.98015759182;0.79986572265625;174
1739.99999560692;7.635498046875E-05;1755.98015756658;0.799560546875;175
1749.99999558167;7.598876953125E-05;1765.98015754133;0.799560546875;176
1759.99999555643;7.4554443359375E-05;1775.98015751608;0.79986572265625;177
1769.99999553118;7.379150390625E-05;1785.98015749083;0.8001708984375;178
1779.99999550593;7.4066162109375E-05;1795.98015746559;0.79925537109375;179
1789.99999548068;7.3486328125E-05;1805.98015744034;0.799560546875;180
1799.99999545544;7.36083984375E-05;1815.98015741509;0.799560546875;181
1809.99999543019;7.2662353515625E-05;1825.98015738984;0.799560546875;182
1819.99999540494;7.135009765625E-05;1835.9801573646;0.799560546875;183
1829.99999537969;7.1990966796875E-05;1845.98015733935;0.8001708984375;184
1839.99999535445;7.1502685546875E-05;1855.9801573141;0.79986572265625;185
1849.9999953292;7.0556640625E-05;1865.98015728885;0.799560546875;186
1859.99999530395;7.159423828125E-05;1875.98015726361;0.79986572265625;187
1869.9999952787;7.135009765625E-05;1885.98015723836;0.8001708984375;188
1879.99999525346;7.1258544921875E-05;1895.98015721311;0.7989501953125;189
1889.99999522821;6.97021484375E-05;1905.98015718786;0.79925537109375;190
1899.99999520296;6.9061279296875E-05;1915.98015716262;0.79986572265625;191
1909.99999517771;6.8603515625E-05;1925.98015713737;0.79986572265625;192
1919.99999515247;6.8695068359375E-05;1935.98015711212;0.799560546875;193
1929.99999512722;6.817626953125E-05;1945.98015708687;0.79986572265625;194
1939.99999510197;6.842041015625E-05;1955.98015706162;0.79925537109375;195
1949.99999507672;6.8756103515625E-05;1965.98015703638;0.8001708984375;196
1959.99999505148;6.8572998046875E-05;1975.98015701113;0.799560546875;197
1969.99999502623;6.6192626953125E-05;1985.98015698588;0.799560546875;198
1979.99999500098;6.817626953125E-05;1995.98015696063;0.79925537109375;199
1989.99999497573;6.658935546875E-05;2005.98015693539;0.799560546875;200
1999.99999495049;6.695556640625E-05;2015.98015691014;0.79986572265625;201
2009.99999492524;6.6802978515625E-05;2025.98015688489;0.79986572265625;202
2019.99999489999;6.5826416015625E-05;2035.98015685964;0.79925537109375;203
2029.99999487474;6.6497802734375E-05;2045.9801568344;0.79986572265625;204
2039.99999484949;6.5185546875E-05;2055.98015680915;0.8001708984375;205
2049.99999482425;6.689453125E-05;2065.9801567839;0.79986572265625;206
2059.999994799;6.6253662109375E-05;2075.98015675865;0.79986572265625;207
2069.99999477375;6.597900390625E-05;2085.98015673341;0.79986572265625;208
2079.9999947485;6.4910888671875E-05;2095.98015670816;0.799560546875;209
2089.99999472326;6.414794921875E-05;2105.98015668291;0.79986572265625;210
2099.99999469801;6.463623046875E-05;2115.98015665766;0.799560546875;211
2109.99999467276;6.439208984375E-05;2125.98015663242;0.79986572265625;212
2119.99999464751;6.390380859375E-05;2135.98015660717;0.79986572265625;213
2129.99999462227;6.4544677734375E-05;2145.98015658192;0.79986572265625;214
2139.99999459702;6.4239501953125E-05;2155.98015655667;0.79986572265625;215
2149.99999457177;6.3201904296875E-05;2165.98015653143;0.79986572265625;216
2159.99999454652;6.2744140625E-05;2175.98015650618;0.799560546875;217
2169.99999452128;6.2896728515625E-05;2185.98015648093;0.799560546875;218
2179.99999449603;6.329345703125E-05;2195.98015645568;0.799560546875;219
2189.99999447078;6.3232421875E-05;2205.98015643044;0.79925537109375;220
2199.99999444553;6.11572265625E-05;2215.98015640519;0.79986572265625;221
2209.99999442029;6.2591552734375E-05;2225.98015637994;0.79925537109375;222
2219.99999439504;6.036376953125E-05;2235.98015635469;0.79986572265625;223
2229.99999436979;6.0821533203125E-05;2245.98015632945;0.79925537109375;224
2239.99999434454;6.0546875E-05;2255.9801563042;0.799560546875;225
2249.9999943193;6.134033203125E-05;2265.98015627895;0.79925537109375;226
2259.99999429405;6.11572265625E-05;2275.9801562537;0.799560546875;227
2269.9999942688;5.9722900390625E-05;2285.98015622845;0.799560546875;228
2279.99999424355;5.963134765625E-05;2295.98015620321;0.79986572265625;229
2289.99999421831;5.9112548828125E-05;2305.98015617796;0.799560546875;230
2299.99999419306;5.877685546875E-05;2315.98015615271;0.79986572265625;231
2309.99999416781;5.987548828125E-05;2325.98015612746;0.79986572265625;232
2319.99999414256;5.8807373046875E-05;2335.98015610222;0.799560546875;233
2329.99999411732;5.865478515625E-05;2345.98015607697;0.7989501953125;234
2339.99999409207;5.8563232421875E-05;2355.98015605172;0.799560546875;235
2349.99999406682;5.8746337890625E-05;2365.98015602647;0.79986572265625;236
2359.99999404157;5.72509765625E-05;2375.98015600123;0.799560546875;237
2369.99999401633;5.8258056640625E-05;2385.98015597598;0.79986572265625;238
2379.99999399108;5.6610107421875E-05;2395.98015595073;0.79986572265625;239
2389.99999396583;5.780029296875E-05;2405.98015592548;0.8001708984375;240
2399.99999394058;5.7586669921875E-05;2415.98015590024;0.79986572265625;241
2409.99999391533;5.7647705078125E-05;2425.98015587499;0.8001708984375;242
2419.99999389009;5.6121826171875E-05;2435.98015584974;0.79986572265625;243
2429.99999386484;5.621337890625E-05;2445.98015582449;0.799560546875;244
2439.99999383959;5.8197021484375E-05;2455.98015579925;0.799560546875;245
2449.99999381434;5.55419921875E-05;2465.980155774;0.7989501953125;246
2459.9999937891;5.5511474609375E-05;2475.98015574875;0.79986572265625;247
2469.99999376385;5.6640625E-05;2485.9801557235;0.799560546875;248
2479.9999937386;5.55419921875E-05;2495.98015569826;0.8001708984375;249
2489.99999371335;5.535888671875E-05;2505.98015567301;0.799560546875;250
2499.99999368811;5.4656982421875E-05;2515.98015564776;0.8001708984375;251
2509.99999366286;5.46875E-05;2525.98015562251;0.79986572265625;252
2519.99999363761;5.413818359375E-05;2535.98015559727;0.799560546875;253
2529.99999361236;5.4718017578125E-05;2545.98015557202;0.79925537109375;254
2539.99999358712;5.4168701171875E-05;2555.98015554677;0.799560546875;255
2549.99999356187;5.3558349609375E-05;2565.98015552152;0.79925537109375;256
2559.99999353662;5.462646484375E-05;2575.98015549628;0.79986572265625;257
2569.99999351137;5.389404296875E-05;2585.98015547103;0.79925537109375;258
2579.99999348613;5.316162109375E-05;2595.98015544578;0.799560546875;259
2589.99999346088;5.35888671875E-05;2605.98015542053;0.79925537109375;260
2599.99999343563;5.3802490234375E-05;2615.98015539528;0.8001708984375;261
2609.99999341038;5.2215576171875E-05;2625.98015537004;0.79925537109375;262
2619.99999338514;5.3802490234375E-05;2635.98015534479;0.7989501953125;263
2629.99999335989;5.2093505859375E-05;2645.98015531954;0.799560546875;264
2639.99999333464;5.3497314453125E-05;2655.98015529429;0.79864501953125;265
2649.99999330939;5.2703857421875E-05;2665.98015526905;0.79925537109375;266
2659.99999328415;5.1300048828125E-05;2675.9801552438;0.8001708984375;267
2669.9999932589;5.26123046875E-05;2685.98015521855;0.79986572265625;268
2679.99999323365;5.145263671875E-05;2695.9801551933;0.80047607421875;269
2689.9999932084;5.3070068359375E-05;2705.98015516806;0.799560546875;270
2699.99999318316;5.1116943359375E-05;2715.98015514281;0.79986572265625;271
2709.99999315791;5.18798828125E-05;2725.98015511756;0.8001708984375;272
2719.99999313266;5.1116943359375E-05;2735.98015509231;0.799560546875;273
2729.99999310741;4.96826171875E-05;2745.98015506707;0.79925537109375;274
2739.99999308217;5.21240234375E-05;2755.98015504182;0.799560546875;275
2749.99999305692;5.072021484375E-05;2765.98015501657;0.799560546875;276
2759.99999303167;5.09033203125E-05;2775.98015499132;0.79925537109375;277
2769.99999300642;5.084228515625E-05;2785.98015496608;0.79925537109375;278
2779.99999298117;5.078125E-05;2795.98015494083;0.7989501953125;279
2789.99999295593;4.95269775390625E-05;2805.98015491558;0.8001708984375;280
2799.99999293068;5.023193359375E-05;2815.98015489033;0.79986572265625;281
2809.99999290543;4.89288330078125E-05;2825.98015486509;0.799560546875;282
2819.99999288018;4.91241455078125E-05;2835.98015483984;0.7989501953125;283
2829.99999285494;4.94232177734375E-05;2845.98015481459;0.799560546875;284
2839.99999282969;5.0018310546875E-05;2855.98015478934;0.79986572265625;285
2849.99999280444;4.935302734375E-05;2865.9801547641;0.799560546875;286
2859.99999277919;4.912109375E-05;2875.98015473885;0.79925537109375;287
2869.99999275395;4.9298095703125E-05;2885.9801547136;0.799560546875;288
2879.9999927287;4.84619140625E-05;2895.98015468835;0.799560546875;289
2889.99999270345;4.8980712890625E-05;2905.98015466311;0.79986572265625;290
2899.9999926782;4.7784423828125E-05;2915.98015463786;0.799560546875;291
2909.99999265296;4.79705810546875E-05;2925.98015461261;0.79986572265625;292
2919.99999262771;4.7998046875E-05;2935.98015458736;0.79925537109375;293
2929.99999260246;4.70458984375E-05;2945.98015456211;0.7989501953125;294
2939.99999257721;4.89959716796875E-05;2955.98015453687;0.79925537109375;295
2949.99999255197;4.67620849609375E-05;2965.98015451162;0.7989501953125;296
2959.99999252672;4.6856689453125E-05;2975.98015448637;0.79986572265625;297
2969.99999250147;4.6453857421875E-05;2985.98015446112;0.79986572265625;298
2979.99999247622;4.67803955078125E-05;2995.98015443588;0.7989501953125;299
2989.99999245098;4.7430419921875E-05;3005.98015441063;0.79864501953125;300
2999.99999242573;4.69512939453125E-05;3015.98015438538;0.799560546875;301
3009.99999240048;4.7113037109375E-05;3025.98015436013;0.79986572265625;302
3019.99999237523;4.68109130859375E-05;3035.98015433489;0.79925537109375;303
3029.99999234999;4.71405029296875E-05;3045.98015430964;0.79986572265625;304
3039.99999232474;4.678955078125E-05;3055.98015428439;0.8001708984375;305
3049.99999229949;4.6307373046875E-05;3065.98015425914;0.79925537109375;306
3059.99999227424;4.57733154296875E-05;3075.9801542339;0.799560546875;307
3069.999992249;4.6539306640625E-05;3085.98015420865;0.79986572265625;308
3079.99999222375;4.47265625E-05;3095.9801541834;0.79986572265625;309
3089.9999921985;4.5892333984375E-05;3105.98015415815;0.79986572265625;310
3099.99999217325;4.58465576171875E-05;3115.98015413291;0.799560546875;311
3109.999992148;4.53857421875E-05;3125.98015410766;0.8001708984375;312
3119.99999212276;4.6014404296875E-05;3135.98015408241;0.79986572265625;313
3129.99999209751;4.55413818359375E-05;3145.98015405716;0.799560546875;314
3139.99999207226;4.522705078125E-05;3155.98015403192;0.799560546875;315
3149.99999204701;4.50347900390625E-05;3165.98015400667;0.79925537109375;316
3159.99999202177;4.51385498046875E-05;3175.98015398142;0.799560546875;317
3169.99999199652;4.47967529296875E-05;3185.98015395617;0.7989501953125;318
3179.99999197127;4.4000244140625E-05;3195.98015393093;0.79925537109375;319
3189.99999194602;4.45343017578125E-05;3205.98015390568;0.8001708984375;320
3199.99999192078;4.4677734375E-05;3215.98015388043;0.799560546875;321
3209.99999189553;4.317626953125E-05;3225.98015385518;0.799560546875;322
3219.99999187028;4.44793701171875E-05;3235.98015382994;0.79925537109375;323
3229.99999184503;4.4476318359375E-05;3245.98015380469;0.799560546875;324
3239.99999181979;4.3572998046875E-05;3255.98015377944;0.80047607421875;325
3249.99999179454;4.404296875E-05;3265.98015375419;0.79925537109375;326
3259.99999176929;4.4427490234375E-05;3275.98015372895;0.79925537109375;327
3269.99999174404;4.30267333984375E-05;3285.9801537037;0.799560546875;328
3279.9999917188;4.3756103515625E-05;3295.98015367845;0.799560546875;329
3289.99999169355;4.49554443359375E-05;3305.9801536532;0.799560546875;330
3299.9999916683;4.31304931640625E-05;3315.98015362795;0.799560546875;331
3309.99999164305;4.2962646484375E-05;3325.98015360271;0.8001708984375;332
3319.99999161781;4.29168701171875E-05;3335.98015357746;0.79986572265625;333
3329.99999159256;4.2645263671875E-05;3345.98015355221;0.79986572265625;334
3339.99999156731;4.20135498046875E-05;3355.98015352696;0.79925537109375;335
3349.99999154206;4.3359375E-05;3365.98015350172;0.799560546875;336
3359.99999151682;4.307861328125E-05;3375.98015347647;0.79986572265625;337
3369.99999149157;4.30877685546875E-05;3385.98015345122;0.79925537109375;338
3379.99999146632;4.27947998046875E-05;3395.98015342597;0.79986572265625;339
3389.99999144107;4.16656494140625E-05;3405.98015340073;0.799560546875;340
3399.99999141583;4.26513671875E-05;3415.98015337548;0.79925537109375;341
3409.99999139058;4.15252685546875E-05;3425.98015335023;0.799560546875;342
3419.99999136533;4.09027099609375E-05;3435.98015332498;0.79925537109375;343
3429.99999134008;4.17938232421875E-05;3445.98015329974;0.79986572265625;344
3439.99999131483;4.19647216796875E-05;3455.98015327449;0.79986572265625;345
3449.99999128959;4.15985107421875E-05;3465.98015324924;0.799560546875;346
3459.99999126434;4.1058349609375E-05;3475.98015322399;0.799560546875;347
3469.99999123909;4.10675048828125E-05;3485.98015319875;0.79925537109375;348
3479.99999121384;4.0728759765625E-05;3495.9801531735;0.79925537109375;349
3489.9999911886;4.2266845703125E-05;3505.98015314825;0.799560546875;350
3499.99999116335;4.04510498046875E-05;3515.980153123;0.79925537109375;351
3509.9999911381;4.0191650390625E-05;3525.98015309776;0.79925537109375;352
3519.99999111285;4.0020751953125E-05;3535.98015307251;0.799560546875;353
3529.99999108761;3.94866943359375E-05;3545.98015304726;0.79925537109375;354
3539.99999106236;4.0032958984375E-05;3555.98015302201;0.799560546875;355
3549.99999103711;4.10369873046875E-05;3565.98015299677;0.79986572265625;356
3559.99999101186;4.01702880859375E-05;3575.98015297152;0.79925537109375;357
3569.99999098662;3.99993896484375E-05;3585.98015294627;0.799560546875;358
3579.99999096137;4.000244140625E-05;3595.98015292102;0.799560546875;359
3589.99999093612;3.98468017578125E-05;3605.98015289578;0.799560546875;360
3599.99999091087;3.98773193359375E-05;3615.98015287053;0.799560546875;361
3609.99999088563;3.95416259765625E-05;3625.98015284528;0.799560546875;362
3619.99999086038;3.98651123046875E-05;3635.98015282003;0.799560546875;363
3629.99999083513;3.89373779296875E-05;3645.98015279478;0.79925537109375;364
3639.99999080988;3.895263671875E-05;3655.98015276954;0.79925537109375;365
3649.99999078464;3.94927978515625E-05;3665.98015274429;0.79925537109375;366
3659.99999075939;3.841552734375E-05;3675.98015271904;0.79925537109375;367
3669.99999073414;3.863525390625E-05;3685.98015269379;0.79986572265625;368
3679.99999070889;3.8690185546875E-05;3695.98015266855;0.8001708984375;369
3689.99999068365;3.86962890625E-05;3705.9801526433;0.7989501953125;370
3699.9999906584;3.853759765625E-05;3715.98015261805;0.79986572265625;371
3709.99999063315;3.9129638671875E-05;3725.9801525928;0.79925537109375;372
3719.9999906079;3.81072998046875E-05;3735.98015256756;0.8001708984375;373
3729.99999058266;3.790283203125E-05;3745.98015254231;0.79925537109375;374
3739.99999055741;3.82720947265625E-05;3755.98015251706;0.79925537109375;375
3749.99999053216;3.797607421875E-05;3765.98015249181;0.79925537109375;376
3759.99999050691;3.8397216796875E-05;3775.98015246657;0.79925537109375;377
3769.99999048167;3.7774658203125E-05;3785.98015244132;0.799560546875;378
3779.99999045642;3.800048828125E-05;3795.98015241607;0.8001708984375;379
3789.99999043117;3.75701904296875E-05;3805.98015239082;0.799560546875;380
3799.99999040592;3.64990234375E-05;3815.98015236558;0.799560546875;381
3809.99999038067;3.73046875E-05;3825.98015234033;0.799560546875;382
3819.99999035543;3.78875732421875E-05;3835.98015231508;0.79986572265625;383
3829.99999033018;3.7322998046875E-05;3845.98015228983;0.79986572265625;384
3839.99999030493;3.624267578125E-05;3855.98015226459;0.79925537109375;385
3849.99999027968;3.74847412109375E-05;3865.98015223934;0.79986572265625;386
3859.99999025444;3.69842529296875E-05;3875.98015221409;0.8001708984375;387
3869.99999022919;3.67279052734375E-05;3885.98015218884;0.799560546875;388
3879.99999020394;3.6505126953125E-05;3895.9801521636;0.79986572265625;389
3889.99999017869;3.6761474609375E-05;3905.98015213835;0.799560546875;390
3899.99999015345;3.6920166015625E-05;3915.9801521131;0.7989501953125;391
3909.9999901282;3.6175537109375E-05;3925.98015208785;0.79986572265625;392
3919.99999010295;3.7054443359375E-05;3935.98015206261;0.8001708984375;393
3929.9999900777;3.65447998046875E-05;3945.98015203736;0.79986572265625;394
3939.99999005246;3.60687255859375E-05;3955.98015201211;0.799560546875;395
3949.99999002721;3.63250732421875E-05;3965.98015198686;0.799560546875;396
3959.99999000196;3.5833740234375E-05;3975.98015196161;0.79925537109375;397
3969.99998997671;3.60748291015625E-05;3985.98015193637;0.79986572265625;398
3979.99998995147;3.58795166015625E-05;3995.98015191112;0.799560546875;399
3989.99998992622;3.57177734375E-05;4005.98015188587;0.799560546875;400
3999.99998990097;3.52508544921875E-05;4015.98015186062;0.79925537109375;401
4009.99998987572;3.58734130859375E-05;4025.98015183538;0.799560546875;402
4019.99998985048;3.56201171875E-05;4035.98015181013;0.799560546875;403
4029.99998982523;3.468017578125E-05;4045.98015178488;0.79986572265625;404
4039.99998979998;3.45489501953125E-05;4055.98015175963;0.799560546875;405
4049.99998977473;3.4466552734375E-05;4065.98015173439;0.79986572265625;406
4059.99998974949;3.541259765625E-05;4075.98015170914;0.799560546875;407
4069.99998972424;3.4844970703125E-05;4085.98015168389;0.799560546875;408
4079.99998969899;3.5198974609375E-05;4095.98015165864;0.79986572265625;409
4089.99998967374;3.53179931640625E-05;4105.9801516334;0.799560546875;410
4099.9999896485;3.4637451171875E-05;4115.98015160815;0.8001708984375;411
4109.99998962325;3.51531982421875E-05;4125.9801515829;0.79986572265625;412
4119.999989598;3.468017578125E-05;4135.98015155765;0.799560546875;413
4129.99998957275;3.38897705078125E-05;4145.98015153241;0.79986572265625;414
4139.9999895475;3.42559814453125E-05;4155.98015150716;0.79986572265625;415
4149.99998952226;3.389892578125E-05;4165.98015148191;0.799560546875;416
4159.99998949701;3.43353271484375E-05;4175.98015145666;0.799560546875;417
4169.99998947176;3.37158203125E-05;4185.98015143142;0.79925537109375;418
4179.99998944651;3.39813232421875E-05;4195.98015140617;0.79925537109375;419
4189.99998942127;3.34320068359375E-05;4205.98015138092;0.8001708984375;420
4199.99998939602;3.4381103515625E-05;4215.98015135567;0.799560546875;421
4209.99998937077;3.33953857421875E-05;4225.98015133043;0.79925537109375;422
4219.99998934552;3.37127685546875E-05;4235.98015130518;0.799560546875;423
4229.99998932028;3.34320068359375E-05;4245.98015127993;0.79986572265625;424
4239.99998929503;3.3526611328125E-05;4255.98015125468;0.79986572265625;425
4249.99998926978;3.30413818359375E-05;4265.98015122944;0.79986572265625;426
4259.99998924453;3.336181640625E-05;4275.98015120419;0.8001708984375;427
4269.99998921929;3.30535888671875E-05;4285.98015117894;0.799560546875;428
4279.99998919404;3.2421875E-05;4295.98015115369;0.799560546875;429
4289.99998916879;3.29742431640625E-05;4305.98015112845;0.79986572265625;430
4299.99998914354;3.3294677734375E-05;4315.9801511032;0.799560546875;431
4309.9999891183;3.22509765625E-05;4325.98015107795;0.799560546875;432
4319.99998909305;3.27178955078125E-05;4335.9801510527;0.799560546875;433
4329.9999890678;3.24554443359375E-05;4345.98015102745;0.79986572265625;434
4339.99998904255;3.24005126953125E-05;4355.98015100221;0.7989501953125;435
4349.99998901731;3.26446533203125E-05;4365.98015097696;0.799560546875;436
4359.99998899206;3.1878662109375E-05;4375.98015095171;0.79986572265625;437
4369.99998896681;3.1829833984375E-05;4385.98015092646;0.79986572265625;438
4379.99998894156;3.1890869140625E-05;4395.98015090122;0.799560546875;439
4389.99998891632;3.1781005859375E-05;4405.98015087597;0.79925537109375;440
4399.99998889107;3.2562255859375E-05;4415.98015085072;0.79925537109375;441
4409.99998886582;3.1549072265625E-05;4425.98015082547;0.79986572265625;442
4419.99998884057;3.19305419921875E-05;4435.98015080023;0.799560546875;443
4429.99998881533;3.204345703125E-05;4445.98015077498;0.799560546875;444
4439.99998879008;3.2562255859375E-05;4455.98015074973;0.79986572265625;445
4449.99998876483;3.16070556640625E-05;4465.98015072448;0.799560546875;446
4459.99998873958;3.148193359375E-05;4475.98015069924;0.799560546875;447
4469.99998871433;3.1781005859375E-05;4485.98015067399;0.79925537109375;448
4479.99998868909;3.128662109375E-05;4495.98015064874;0.799560546875;449
4489.99998866384;3.1756591796875E-05;4505.98015062349;0.79925537109375;450
4499.99998863859;3.101806640625E-05;4515.98015059825;0.79925537109375;451
4509.99998861334;3.099365234375E-05;4525.980150573;0.7989501953125;452
4519.9999885881;3.09051513671875E-05;4535.98015054775;0.7989501953125;453
4529.99998856285;3.11676025390625E-05;4545.9801505225;0.799560546875;454
4539.9999885376;3.10638427734375E-05;4555.98015049726;0.79986572265625;455
4549.99998851235;3.03985595703125E-05;4565.98015047201;0.79925537109375;456
4559.99998848711;3.0908203125E-05;4575.98015044676;0.79925537109375;457
4569.99998846186;3.11248779296875E-05;4585.98015042151;0.79925537109375;458
4579.99998843661;3.0267333984375E-05;4595.98015039627;0.8001708984375;459
4589.99998841136;3.02337646484375E-05;4605.98015037102;0.799560546875;460
4599.99998838612;3.02093505859375E-05;4615.98015034577;0.799560546875;461
4609.99998836087;2.991943359375E-05;4625.98015032052;0.799560546875;462
4619.99998833562;2.97515869140625E-05;4635.98015029528;0.799560546875;463
4629.99998831037;2.974853515625E-05;4645.98015027003;0.8001708984375;464
4639.99998828513;2.9779052734375E-05;4655.98015024478;0.79986572265625;465
4649.99998825988;2.98309326171875E-05;4665.98015021953;0.79925537109375;466
4659.99998823463;3.07037353515625E-05;4675.98015019428;0.799560546875;467
4669.99998820938;2.9840087890625E-05;4685.98015016904;0.799560546875;468
4679.99998818414;2.9833984375E-05;4695.98015014379;0.79986572265625;469
4689.99998815889;3.01727294921875E-05;4705.98015011854;0.799560546875;470
4699.99998813364;3.00262451171875E-05;4715.98015009329;0.79986572265625;471
4709.99998810839;2.98614501953125E-05;4725.98015006805;0.799560546875;472
4719.99998808315;2.96630859375E-05;4735.9801500428;0.799560546875;473
4729.9999880579;2.97698974609375E-05;4745.98015001755;0.79986572265625;474
4739.99998803265;2.9437255859375E-05;4755.9801499923;0.799560546875;475
4749.9999880074;2.89337158203125E-05;4765.98014996706;0.79986572265625;476
4759.99998798216;2.95257568359375E-05;4775.98014994181;0.79986572265625;477
4769.99998795691;2.9278564453125E-05;4785.98014991656;0.799560546875;478
4779.99998793166;2.894287109375E-05;4795.98014989131;0.8001708984375;479
4789.99998790641;2.86468505859375E-05;4805.98014986607;0.799560546875;480
4799.99998788117;2.91229248046875E-05;4815.98014984082;0.79986572265625;481
4809.99998785592;2.8485107421875E-05;4825.98014981557;0.799560546875;482
4819.99998783067;2.86712646484375E-05;4835.98014979032;0.799560546875;483
4829.99998780542;2.90557861328125E-05;4845.98014976508;0.799560546875;484
4839.99998778017;2.799072265625E-05;4855.98014973983;0.79986572265625;485
4849.99998775493;2.80853271484375E-05;4865.98014971458;0.799560546875;486
4859.99998772968;2.83721923828125E-05;4875.98014968933;0.79986572265625;487
4869.99998770443;2.8448486328125E-05;4885.98014966409;0.79986572265625;488
4879.99998767918;2.7996826171875E-05;4895.98014963884;0.8001708984375;489
4889.99998765394;2.769775390625E-05;4905.98014961359;0.799560546875;490
4899.99998762869;2.81524658203125E-05;4915.98014958834;0.79925537109375;491
4909.99998760344;2.85003662109375E-05;4925.9801495631;0.79986572265625;492
4919.99998757819;2.7716064453125E-05;4935.98014953785;0.799560546875;493
4929.99998755295;2.77557373046875E-05;4945.9801495126;0.799560546875;494
4939.9999875277;2.8192138671875E-05;4955.98014948735;0.799560546875;495
4949.99998750245;2.7276611328125E-05;4965.98014946211;0.7989501953125;496
4959.9999874772;2.71209716796875E-05;4975.98014943686;0.79925537109375;497
4969.99998745196;2.78564453125E-05;4985.98014941161;0.799560546875;498
4979.99998742671;2.76611328125E-05;4995.98014938636;0.799560546875;499
4989.99998740146;2.7947998046875E-05;5005.98014936111;0.79925537109375;500
4999.99998737621;2.76031494140625E-05;5015.98014933587;0.8001708984375;501
5009.99998735097;2.74627685546875E-05;5025.98014931062;0.799560546875;502
5019.99998732572;2.6824951171875E-05;5035.98014928537;0.79986572265625;503
5029.99998730047;2.7593994140625E-05;5045.98014926012;0.799560546875;504
5039.99998727522;2.7001953125E-05;5055.98014923488;0.79986572265625;505
5049.99998724998;2.750244140625E-05;5065.98014920963;0.799560546875;506
5059.99998722473;2.73162841796875E-05;5075.98014918438;0.8001708984375;507
5069.99998719948;2.696533203125E-05;5085.98014915913;0.79925537109375;508
5079.99998717423;2.72369384765625E-05;5095.98014913389;0.799560546875;509
5089.99998714899;2.72491455078125E-05;5105.98014910864;0.79986572265625;510
5099.99998712374;2.68280029296875E-05;5115.98014908339;0.79986572265625;511
5109.99998709849;2.681884765625E-05;5125.98014905814;0.79925537109375;512
5119.99998707324;2.7117919921875E-05;5135.9801490329;0.79986572265625;513
5129.999987048;2.71453857421875E-05;5145.98014900765;0.79986572265625;514
5139.99998702275;2.666015625E-05;5155.9801489824;0.799560546875;515
5149.9999869975;2.65960693359375E-05;5165.98014895715;0.79925537109375;516
5159.99998697225;2.645263671875E-05;5175.98014893191;0.8001708984375;517
5169.999986947;2.64251708984375E-05;5185.98014890666;0.79925537109375;518
5179.99998692176;2.61077880859375E-05;5195.98014888141;0.79925537109375;519
5189.99998689651;2.62420654296875E-05;5205.98014885616;0.799560546875;520
5199.99998687126;2.62298583984375E-05;5215.98014883092;0.799560546875;521
5209.99998684601;2.62664794921875E-05;5225.98014880567;0.799560546875;522
5219.99998682077;2.63092041015625E-05;5235.98014878042;0.79925537109375;523
5229.99998679552;2.63916015625E-05;5245.98014875517;0.799560546875;524
5239.99998677027;2.6416015625E-05;5255.98014872993;0.79925537109375;525
5249.99998674502;2.6348876953125E-05;5265.98014870468;0.799560546875;526
5259.99998671978;2.60284423828125E-05;5275.98014867943;0.799560546875;527
5269.99998669453;2.58331298828125E-05;5285.98014865418;0.799560546875;528
5279.99998666928;2.6177978515625E-05;5295.98014862894;0.8001708984375;529
5289.99998664403;2.60650634765625E-05;5305.98014860369;0.79925537109375;530
5299.99998661879;2.63153076171875E-05;5315.98014857844;0.79925537109375;531
5309.99998659354;2.57598876953125E-05;5325.98014855319;0.79925537109375;532
5319.99998656829;2.54913330078125E-05;5335.98014852794;0.799560546875;533
5329.99998654304;2.58148193359375E-05;5345.9801485027;0.8001708984375;534
5339.9999865178;2.55767822265625E-05;5355.98014847745;0.79986572265625;535
5349.99998649255;2.5579833984375E-05;5365.9801484522;0.799560546875;536
5359.9999864673;2.53204345703125E-05;5375.98014842695;0.79925537109375;537
5369.99998644205;2.5244140625E-05;5385.98014840171;0.79986572265625;538
5379.99998641681;2.51129150390625E-05;5395.98014837646;0.799560546875;539
5389.99998639156;2.523193359375E-05;5405.98014835121;0.799560546875;540
5399.99998636631;2.59033203125E-05;5415.98014832596;0.79925537109375;541
5409.99998634106;2.70050048828125E-05;5425.98014830072;0.799560546875;542
5419.99998631582;2.855224609375E-05;5435.98014827547;0.79925537109375;543
5429.99998629057;3.17352294921875E-05;5445.98014825022;0.799560546875;544
5439.99998626532;3.408203125E-05;5455.98014822497;0.799560546875;545
5449.99998624007;3.46099853515625E-05;5465.98014819973;0.799560546875;546
5459.99998621483;3.3453369140625E-05;5475.98014817448;0.799560546875;547
5469.99998618958;3.4283447265625E-05;5485.98014814923;0.79925537109375;548
5479.99998616433;3.3306884765625E-05;5495.98014812398;0.799560546875;549
5489.99998613908;3.29833984375E-05;5505.98014809874;0.79986572265625;550
5499.99998611383;3.35845947265625E-05;5515.98014807349;0.799560546875;551
5509.99998608859;3.30780029296875E-05;5525.98014804824;0.799560546875;552
5519.99998606334;3.214111328125E-05;5535.98014802299;0.799560546875;553
5529.99998603809;3.380126953125E-05;5545.98014799775;0.799560546875;554
5539.99998601284;3.18145751953125E-05;5555.9801479725;0.799560546875;555
5549.9999859876;3.28643798828125E-05;5565.98014794725;0.799560546875;556
5559.99998596235;3.2781982421875E-05;5575.980147922;0.79986572265625;557
5569.9999859371;3.2647705078125E-05;5585.98014789676;0.7989501953125;558
5579.99998591185;3.228759765625E-05;5595.98014787151;0.79925537109375;559
5589.99998588661;3.2513427734375E-05;5605.98014784626;0.799560546875;560
5599.99998586136;3.21533203125E-05;5615.98014782101;0.799560546875;561
5609.99998583611;3.21044921875E-05;5625.98014779577;0.79925537109375;562
5619.99998581086;3.2147216796875E-05;5635.98014777052;0.7989501953125;563
5629.99998578562;3.21746826171875E-05;5645.98014774527;0.799560546875;564
5639.99998576037;3.19244384765625E-05;5655.98014772002;0.79925537109375;565
5649.99998573512;3.17901611328125E-05;5665.98014769478;0.79986572265625;566
5659.99998570987;3.1109619140625E-05;5675.98014766953;0.79864501953125;567
5669.99998568463;3.28216552734375E-05;5685.98014764428;0.79986572265625;568
5679.99998565938;3.22967529296875E-05;5695.98014761903;0.799560546875;569
5689.99998563413;3.17901611328125E-05;5705.98014759378;0.799560546875;570
5699.99998560888;3.14453125E-05;5715.98014756854;0.79925537109375;571
5709.99998558364;3.154296875E-05;5725.98014754329;0.8001708984375;572
5719.99998555839;3.21990966796875E-05;5735.98014751804;0.79925537109375;573
5729.99998553314;3.1732177734375E-05;5745.98014749279;0.79986572265625;574
5739.99998550789;3.07861328125E-05;5755.98014746755;0.79986572265625;575
5749.99998548265;3.02093505859375E-05;5765.9801474423;0.8001708984375;576
5759.9999854574;3.12774658203125E-05;5775.98014741705;0.799560546875;577
5769.99998543215;3.0718994140625E-05;5785.9801473918;0.79925537109375;578
5779.9999854069;3.08258056640625E-05;5795.98014736656;0.7989501953125;579
5789.99998538166;3.106689453125E-05;5805.98014734131;0.799560546875;580
5799.99998535641;3.1134033203125E-05;5815.98014731606;0.799560546875;581