Corrected time (s);WE(1).Current (A);Time (s);WE(1).Potential (V);Index
0;0.000211639404296875;16.0544399594664;0.40032958984375;1
9.99999997475243;0.0001932373046875;26.0544399342189;0.4002685546875;2
19.9999999495049;0.000177154541015625;36.0544399089713;0.39947509765625;3
29.9999999242573;0.000195709228515625;46.0544398837237;0.399688720703125;4
39.9999998990097;0.000192169189453125;56.0544398584761;0.400146484375;5
49.9999998737621;0.000204498291015625;66.0544398332286;0.399383544921875;6
59.9999998485146;0.000187255859375;76.054439807981;0.400421142578125;7
69.999999823267;0.000194183349609375;86.0544397827334;0.3997802734375;8
79.9999997980194;0.000188934326171875;96.0544397574859;0.39990234375;9
89.9999997727718;0.000185516357421875;106.054439732238;0.39990234375;10
99.9999997475243;0.00018206787109375;116.054439706991;0.39984130859375;11
109.999999722277;0.00018988037109375;126.054439681743;0.3997802734375;12
119.999999697029;0.000176849365234375;136.054439656496;0.39935302734375;13
129.999999671782;0.00018817138671875;146.054439631248;0.399932861328125;14
139.999999646534;0.000178070068359375;156.054439606;0.399566650390625;15
149.999999621286;0.00019140625;166.054439580753;0.39990234375;16
159.999999596039;0.000175872802734375;176.054439555505;0.399810791015625;17
169.999999570791;0.000174468994140625;186.054439530258;0.399749755859375;18
179.999999545544;0.000165130615234375;196.05443950501;0.39959716796875;19
189.999999520296;0.000185150146484375;206.054439479763;0.399932861328125;20
199.999999495049;0.000180908203125;216.054439454515;0.3997802734375;21
209.999999469801;0.000160125732421875;226.054439429267;0.39971923828125;22
219.999999444553;0.000169097900390625;236.05443940402;0.39996337890625;23
229.999999419306;0.000165313720703125;246.054439378772;0.400054931640625;24
239.999999394058;0.000157562255859375;256.054439353525;0.3994140625;25
249.999999368811;0.0001552734375;266.054439328277;0.40020751953125;26
259.999999343563;0.000153717041015625;276.05443930303;0.399566650390625;27
269.999999318316;0.000152923583984375;286.054439277782;0.39959716796875;28
279.999999293068;0.000165985107421875;296.054439252534;0.400115966796875;29
289.99999926782;0.00015826416015625;306.054439227287;0.399932861328125;30
299.999999242573;0.0001632080078125;316.054439202039;0.399688720703125;31
309.999999217325;0.000174652099609375;326.054439176792;0.399627685546875;32
319.999999192078;0.000166656494140625;336.054439151544;0.400238037109375;33
329.99999916683;0.000165252685546875;346.054439126297;0.399871826171875;34
339.999999141583;0.00015948486328125;356.054439101049;0.399688720703125;35
349.999999116335;0.00016748046875;366.054439075801;0.399688720703125;36
359.999999091087;0.000146270751953125;376.054439050554;0.4000244140625;37
369.99999906584;0.000163238525390625;386.054439025306;0.400177001953125;38
379.999999040592;0.000153167724609375;396.054439000059;0.3994140625;39
389.999999015345;0.00015069580078125;406.054438974811;0.399871826171875;40
399.999998990097;0.000144744873046875;416.054438949564;0.400238037109375;41
409.99999896485;0.000161712646484375;426.054438924316;0.400146484375;42
419.999998939602;0.00016156005859375;436.054438899068;0.39984130859375;43
429.999998914354;0.000152587890625;446.054438873821;0.399627685546875;44
439.999998889107;0.000147979736328125;456.054438848573;0.400238037109375;45
449.999998863859;0.000154571533203125;466.054438823326;0.400238037109375;46
459.999998838612;0.000157958984375;476.054438798078;0.399658203125;47
469.999998813364;0.0001611328125;486.054438772831;0.3997802734375;48
479.999998788117;0.000155670166015625;496.054438747583;0.400146484375;49
489.999998762869;0.000140625;506.054438722335;0.3994140625;50
499.999998737621;0.000144500732421875;516.054438697088;0.399932861328125;51
509.999998712374;0.000136962890625;526.05443867184;0.400390625;52
519.999998687126;0.00015228271484375;536.054438646593;0.39984130859375;53
529.999998661879;0.00014935302734375;546.054438621345;0.400238037109375;54
539.999998636631;0.000149566650390625;556.054438596098;0.399505615234375;55
549.999998611383;0.000148162841796875;566.05443857085;0.399932861328125;56
559.999998586136;0.0001439208984375;576.054438545602;0.399993896484375;57
569.999998560888;0.00014776611328125;586.054438520355;0.399749755859375;58
579.999998535641;0.000147003173828125;596.054438495107;0.400360107421875;59
589.999998510393;0.000132049560546875;606.05443846986;0.399810791015625;60
599.999998485146;0.000129180908203125;616.054438444612;0.3994140625;61
609.999998459898;0.00014959716796875;626.054438419364;0.39984130859375;62
619.99999843465;0.00014892578125;636.054438394117;0.400177001953125;63
629.999998409403;0.00014105224609375;646.054438368869;0.400054931640625;64
639.999998384155;0.00012725830078125;656.054438343622;0.39984130859375;65
649.999998358908;0.00013836669921875;666.054438318374;0.399505615234375;66
659.99999833366;0.000135284423828125;676.054438293127;0.39996337890625;67
669.999998308413;0.00013519287109375;686.054438267879;0.39923095703125;68
679.999998283165;0.000126922607421875;696.054438242631;0.399810791015625;69
689.999998257917;0.000127685546875;706.054438217384;0.40020751953125;70
699.99999823267;0.000131195068359375;716.054438192136;0.399993896484375;71
709.999998207422;0.000140350341796875;726.054438166889;0.399810791015625;72
719.999998182175;0.000135406494140625;736.054438141641;0.399932861328125;73
729.999998156927;0.000123565673828125;746.054438116394;0.399810791015625;74
739.99999813168;0.00013214111328125;756.054438091146;0.400177001953125;75
749.999998106432;0.000136505126953125;766.054438065898;0.399871826171875;76
759.999998081184;0.000131500244140625;776.054438040651;0.400482177734375;77
769.999998055937;0.00012750244140625;786.054438015403;0.3997802734375;78
779.999998030689;0.00013885498046875;796.054437990156;0.399932861328125;79
789.999998005442;0.00012237548828125;806.054437964908;0.400146484375;80
799.999997980194;0.00012115478515625;816.054437939661;0.3997802734375;81
809.999997954947;0.000128875732421875;826.054437914413;0.399688720703125;82
819.999997929699;0.000126251220703125;836.054437889165;0.4000244140625;83
829.999997904451;0.000121429443359375;846.054437863918;0.39990234375;84
839.999997879204;0.000124755859375;856.05443783867;0.399810791015625;85
849.999997853956;0.000126220703125;866.054437813423;0.399871826171875;86
859.999997828709;0.00013116455078125;876.054437788175;0.39996337890625;87
869.999997803461;0.000121368408203125;886.054437762928;0.399871826171875;88
879.999997778214;0.000117431640625;896.05443773768;0.39923095703125;89
889.999997752966;0.0001265869140625;906.054437712432;0.399749755859375;90
899.999997727718;0.000114471435546875;916.054437687185;0.39971923828125;91
909.999997702471;0.00012677001953125;926.054437661937;0.400390625;92
919.999997677223;0.000124542236328125;936.05443763669;0.39990234375;93
929.999997651976;0.000124786376953125;946.054437611442;0.39996337890625;94
939.999997626728;0.000125701904296875;956.054437586195;0.399749755859375;95
949.999997601481;0.000111358642578125;966.054437560947;0.400146484375;96
959.999997576233;0.0001036376953125;976.054437535699;0.39947509765625;97
969.999997550985;0.000111663818359375;986.054437510452;0.4000244140625;98
979.999997525738;0.0001121826171875;996.054437485204;0.399322509765625;99
989.99999750049;0.00011968994140625;1006.05443745996;0.400054931640625;100
999.999997475243;0.000114013671875;1016.05443743471;0.399810791015625;101
1009.99999745;0.000107025146484375;1026.05443740946;0.399871826171875;102
1019.99999742475;9.857177734375E-05;1036.05443738421;0.39971923828125;103
1029.9999973995;0.00011346435546875;1046.05443735897;0.4002685546875;104
1039.99999737425;0.0001151123046875;1056.05443733372;0.39971923828125;105
1049.999997349;0.000113494873046875;1066.05443730847;0.4002685546875;106
1059.99999732376;0.00011639404296875;1076.05443728322;0.399658203125;107
1069.99999729851;0.000107757568359375;1086.05443725798;0.400482177734375;108
1079.99999727326;0.00010577392578125;1096.05443723273;0.400054931640625;109
1089.99999724801;0.000105987548828125;1106.05443720748;0.399566650390625;110
1099.99999722277;0.000104766845703125;1116.05443718223;0.3997802734375;111
1109.99999719752;0.000115142822265625;1126.05443715699;0.400299072265625;112
1119.99999717227;0.00011016845703125;1136.05443713174;0.400177001953125;113
1129.99999714702;0.00010870361328125;1146.05443710649;0.39984130859375;114
1139.99999712178;0.000109375;1156.05443708124;0.39959716796875;115
1149.99999709653;0.000113189697265625;1166.054437056;0.39996337890625;116
1159.99999707128;0.000110870361328125;1176.05443703075;0.4000244140625;117
1169.99999704603;0.00010614013671875;1186.0544370055;0.39990234375;118
1179.99999702079;0.00011102294921875;1196.05443698025;0.400360107421875;119
1189.99999699554;0.000100982666015625;1206.05443695501;0.39984130859375;120
1199.99999697029;9.50927734375E-05;1216.05443692976;0.3997802734375;121
1209.99999694504;0.000102020263671875;1226.05443690451;0.399658203125;122
1219.9999969198;0.000100341796875;1236.05443687926;0.39996337890625;123
1229.99999689455;0.0001043701171875;1246.05443685402;0.400482177734375;124
1239.9999968693;0.0001026611328125;1256.05443682877;0.399871826171875;125
1249.99999684405;0.000102996826171875;1266.05443680352;0.4000244140625;126
1259.99999681881;9.619140625E-05;1276.05443677827;0.39996337890625;127
1269.99999679356;0.000101409912109375;1286.05443675302;0.39996337890625;128
1279.99999676831;9.100341796875E-05;1296.05443672778;0.39984130859375;129
1289.99999674306;9.7564697265625E-05;1306.05443670253;0.399749755859375;130
1299.99999671782;0.00010498046875;1316.05443667728;0.40008544921875;131
1309.99999669257;9.8968505859375E-05;1326.05443665203;0.40008544921875;132
1319.99999666732;9.722900390625E-05;1336.05443662679;0.39984130859375;133
1329.99999664207;9.4390869140625E-05;1346.05443660154;0.3995361328125;134
1339.99999661683;9.613037109375E-05;1356.05443657629;0.39984130859375;135
1349.99999659158;9.271240234375E-05;1366.05443655104;0.400299072265625;136
1359.99999656633;9.6038818359375E-05;1376.0544365258;0.399383544921875;137
1369.99999654108;9.283447265625E-05;1386.05443650055;0.39984130859375;138
1379.99999651583;9.7747802734375E-05;1396.0544364753;0.40020751953125;139
1389.99999649059;9.735107421875E-05;1406.05443645005;0.39959716796875;140
1399.99999646534;9.21630859375E-05;1416.05443642481;0.39990234375;141
1409.99999644009;9.429931640625E-05;1426.05443639956;0.399871826171875;142
1419.99999641484;9.7503662109375E-05;1436.05443637431;0.39984130859375;143
1429.9999963896;8.7127685546875E-05;1446.05443634906;0.399505615234375;144
1439.99999636435;8.7066650390625E-05;1456.05443632382;0.4000244140625;145
1449.9999963391;9.5306396484375E-05;1466.05443629857;0.399566650390625;146
1459.99999631385;9.2437744140625E-05;1476.05443627332;0.39990234375;147
1469.99999628861;8.8226318359375E-05;1486.05443624807;0.39971923828125;148
1479.99999626336;9.4085693359375E-05;1496.05443622283;0.400146484375;149
1489.99999623811;8.966064453125E-05;1506.05443619758;0.399993896484375;150
1499.99999621286;8.746337890625E-05;1516.05443617233;0.399871826171875;151
1509.99999618762;8.94775390625E-05;1526.05443614708;0.39990234375;152
1519.99999616237;8.697509765625E-05;1536.05443612184;0.399627685546875;153
1529.99999613712;9.2681884765625E-05;1546.05443609659;0.399169921875;154
1539.99999611187;8.4930419921875E-05;1556.05443607134;0.399993896484375;155
1549.99999608663;8.807373046875E-05;1566.05443604609;0.399810791015625;156
1559.99999606138;8.8653564453125E-05;1576.05443602085;0.399261474609375;157
1569.99999603613;8.04443359375E-05;1586.0544359956;0.4000244140625;158
1579.99999601088;8.4808349609375E-05;1596.05443597035;0.399383544921875;159
1589.99999598564;8.89892578125E-05;1606.0544359451;0.400146484375;160
1599.99999596039;8.7127685546875E-05;1616.05443591985;0.399505615234375;161
1609.99999593514;8.868408203125E-05;1626.05443589461;0.4000244140625;162
1619.99999590989;8.685302734375E-05;1636.05443586936;0.4000244140625;163
1629.99999588465;8.4442138671875E-05;1646.05443584411;0.39996337890625;164
1639.9999958594;8.09326171875E-05;1656.05443581886;0.400054931640625;165
1649.99999583415;7.684326171875E-05;1666.05443579362;0.399627685546875;166
1659.9999958089;8.477783203125E-05;1676.05443576837;0.4000244140625;167
1669.99999578366;7.71484375E-05;1686.05443574312;0.39990234375;168
1679.99999575841;8.0841064453125E-05;1696.05443571787;0.3997802734375;169
1689.99999573316;8.160400390625E-05;1706.05443569263;0.39996337890625;170
1699.99999570791;8.258056640625E-05;1716.05443566738;0.399871826171875;171
1709.99999568267;7.806396484375E-05;1726.05443564213;0.39971923828125;172
1719.99999565742;8.4075927734375E-05;1736.05443561688;0.39990234375;173
1729.99999563217;7.769775390625E-05;1746.05443559164;0.39984130859375;174
1739.99999560692;7.7392578125E-05;1756.05443556639;0.399383544921875;175
1749.99999558167;8.3709716796875E-05;1766.05443554114;0.39990234375;176
1759.99999555643;7.6751708984375E-05;1776.05443551589;0.3994140625;177
1769.99999553118;7.5714111328125E-05;1786.05443549065;0.399566650390625;178
1779.99999550593;8.209228515625E-05;1796.0544354654;0.399871826171875;179
1789.99999548068;8.2305908203125E-05;1806.05443544015;0.400482177734375;180
1799.99999545544;7.9498291015625E-05;1816.0544354149;0.39971923828125;181
1809.99999543019;7.4920654296875E-05;1826.05443538966;0.400115966796875;182
1819.99999540494;7.5714111328125E-05;1836.05443536441;0.4002685546875;183
1829.99999537969;7.5531005859375E-05;1846.05443533916;0.399658203125;184
1839.99999535445;7.38525390625E-05;1856.05443531391;0.39947509765625;185
1849.9999953292;7.6019287109375E-05;1866.05443528867;0.399505615234375;186
1859.99999530395;7.2113037109375E-05;1876.05443526342;0.4000244140625;187
1869.9999952787;7.2357177734375E-05;1886.05443523817;0.399993896484375;188
1879.99999525346;7.5531005859375E-05;1896.05443521292;0.399627685546875;189
1889.99999522821;7.3822021484375E-05;1906.05443518768;0.40008544921875;190
1899.99999520296;7.09228515625E-05;1916.05443516243;0.399688720703125;191
1909.99999517771;7.537841796875E-05;1926.05443513718;0.3997802734375;192
1919.99999515247;7.135009765625E-05;1936.05443511193;0.40020751953125;193
1929.99999512722;7.2998046875E-05;1946.05443508668;0.399871826171875;194
1939.99999510197;6.134033203125E-05;1956.05443506144;0.400390625;195
1949.99999507672;6.842041015625E-05;1966.05443503619;0.399871826171875;196
1959.99999505148;6.793212890625E-05;1976.05443501094;0.39990234375;197
1969.99999502623;6.6070556640625E-05;1986.05443498569;0.39971923828125;198
1979.99999500098;6.82373046875E-05;1996.05443496045;0.399627685546875;199
1989.99999497573;6.87255859375E-05;2006.0544349352;0.399871826171875;200
1999.99999495049;7.147216796875E-05;2016.05443490995;0.39990234375;201
2009.99999492524;6.6253662109375E-05;2026.0544348847;0.399993896484375;202
2019.99999489999;6.024169921875E-05;2036.05443485946;0.399627685546875;203
2029.99999487474;6.884765625E-05;2046.05443483421;0.400299072265625;204
2039.9999948495;7.06787109375E-05;2056.05443480896;0.399658203125;205
2049.99999482425;6.6864013671875E-05;2066.05443478371;0.399658203125;206
2059.999994799;6.8450927734375E-05;2076.05443475847;0.400115966796875;207
2069.99999477375;6.6192626953125E-05;2086.05443473322;0.39984130859375;208
2079.9999947485;6.4697265625E-05;2096.05443470797;0.39971923828125;209
2089.99999472326;6.4910888671875E-05;2106.05443468272;0.399932861328125;210
2099.99999469801;6.3079833984375E-05;2116.05443465748;0.39984130859375;211
2109.99999467276;6.7596435546875E-05;2126.05443463223;0.399688720703125;212
2119.99999464751;6.09130859375E-05;2136.05443460698;0.39971923828125;213
2129.99999462227;6.8450927734375E-05;2146.05443458173;0.4002685546875;214
2139.99999459702;6.6314697265625E-05;2156.05443455649;0.4002685546875;215
2149.99999457177;6.158447265625E-05;2166.05443453124;0.39990234375;216
2159.99999454652;6.304931640625E-05;2176.05443450599;0.399322509765625;217
2169.99999452128;6.6070556640625E-05;2186.05443448074;0.399383544921875;218
2179.99999449603;6.21337890625E-05;2196.0544344555;0.40008544921875;219
2189.99999447078;6.3201904296875E-05;2206.05443443025;0.40020751953125;220
2199.99999444553;6.414794921875E-05;2216.054434405;0.399658203125;221
2209.99999442029;5.9661865234375E-05;2226.05443437975;0.39990234375;222
2219.99999439504;6.2042236328125E-05;2236.05443435451;0.400054931640625;223
2229.99999436979;6.243896484375E-05;2246.05443432926;0.399688720703125;224
2239.99999434454;5.8197021484375E-05;2256.05443430401;0.39971923828125;225
2249.9999943193;5.9661865234375E-05;2266.05443427876;0.399688720703125;226
2259.99999429405;6.3995361328125E-05;2276.05443425352;0.399810791015625;227
2269.9999942688;6.0333251953125E-05;2286.05443422827;0.39971923828125;228
2279.99999424355;5.7037353515625E-05;2296.05443420302;0.4002685546875;229
2289.99999421831;6.0089111328125E-05;2306.05443417777;0.3997802734375;230
2299.99999419306;6.0546875E-05;2316.05443415252;0.4002685546875;231
2309.99999416781;5.9478759765625E-05;2326.05443412728;0.400238037109375;232
2319.99999414256;5.76171875E-05;2336.05443410203;0.39996337890625;233
2329.99999411732;5.963134765625E-05;2346.05443407678;0.400238037109375;234
2339.99999409207;5.6884765625E-05;2356.05443405153;0.399627685546875;235
2349.99999406682;5.5419921875E-05;2366.05443402629;0.399871826171875;236
2359.99999404157;5.6610107421875E-05;2376.05443400104;0.400360107421875;237
2369.99999401633;5.7708740234375E-05;2386.05443397579;0.39990234375;238
2379.99999399108;5.584716796875E-05;2396.05443395054;0.39996337890625;239
2389.99999396583;5.7769775390625E-05;2406.0544339253;0.399688720703125;240
2399.99999394058;6.011962890625E-05;2416.05443390005;0.39990234375;241
2409.99999391533;5.55419921875E-05;2426.0544338748;0.39959716796875;242
2419.99999389009;5.8197021484375E-05;2436.05443384955;0.399749755859375;243
2429.99999386484;5.474853515625E-05;2446.05443382431;0.399658203125;244
2439.99999383959;5.712890625E-05;2456.05443379906;0.3992919921875;245
2449.99999381434;5.419921875E-05;2466.05443377381;0.399932861328125;246
2459.9999937891;5.6182861328125E-05;2476.05443374856;0.39947509765625;247
2469.99999376385;5.755615234375E-05;2486.05443372332;0.399505615234375;248
2479.9999937386;5.1849365234375E-05;2496.05443369807;0.399749755859375;249
2489.99999371335;5.5389404296875E-05;2506.05443367282;0.3994140625;250
2499.99999368811;5.6640625E-05;2516.05443364757;0.399627685546875;251
2509.99999366286;5.2276611328125E-05;2526.05443362233;0.399810791015625;252
2519.99999363761;5.3497314453125E-05;2536.05443359708;0.4002685546875;253
2529.99999361236;5.6396484375E-05;2546.05443357183;0.39984130859375;254
