Corrected time (s)	WE(1).Current (A)	Time (s)	WE(1).Potential (V)	Index
0	0.000151123046875	16.1202799593002	0.300048828125	1
9.99999997475243	0.000147552490234375	26.1202799340526	0.3001708984375	2
19.9999999495049	0.000148681640625	36.1202799088051	0.300079345703125	3
29.9999999242573	0.000148651123046875	46.1202798835575	0.300018310546875	4
39.9999998990097	0.0001431884765625	56.1202798583099	0.30010986328125	5
49.9999998737621	0.0001478271484375	66.1202798330623	0.299896240234375	6
59.9999998485146	0.0001387939453125	76.1202798078148	0.300018310546875	7
69.999999823267	0.000142791748046875	86.1202797825672	0.300079345703125	8
79.9999997980194	0.0001439208984375	96.1202797573196	0.300018310546875	9
89.9999997727718	0.00013751220703125	106.120279732072	0.300048828125	10
99.9999997475243	0.000134307861328125	116.120279706824	0.29998779296875	11
109.999999722277	0.0001363525390625	126.120279681577	0.2999267578125	12
119.999999697029	0.000142059326171875	136.120279656329	0.300018310546875	13
129.999999671782	0.000137359619140625	146.120279631082	0.300018310546875	14
139.999999646534	0.00014154052734375	156.120279605834	0.29998779296875	15
149.999999621286	0.00013299560546875	166.120279580587	0.299896240234375	16
159.999999596039	0.00012799072265625	176.120279555339	0.300018310546875	17
169.999999570791	0.00012939453125	186.120279530091	0.299957275390625	18
179.999999545544	0.000139007568359375	196.120279504844	0.300018310546875	19
189.999999520296	0.000133514404296875	206.120279479596	0.2999267578125	20
199.999999495049	0.000138214111328125	216.120279454349	0.299957275390625	21
209.999999469801	0.000131134033203125	226.120279429101	0.29998779296875	22
219.999999444553	0.0001285400390625	236.120279403854	0.2999267578125	23
229.999999419306	0.00013006591796875	246.120279378606	0.299957275390625	24
239.999999394058	0.000141510009765625	256.120279353358	0.300018310546875	25
249.999999368811	0.00013165283203125	266.120279328111	0.29998779296875	26
259.999999343563	0.000127471923828125	276.120279302863	0.29998779296875	27
269.999999318316	0.0001243896484375	286.120279277616	0.300018310546875	28
279.999999293068	0.000139678955078125	296.120279252368	0.300048828125	29
289.99999926782	0.000127655029296875	306.120279227121	0.299957275390625	30
299.999999242573	0.0001258544921875	316.120279201873	0.30010986328125	31
309.999999217325	0.000129302978515625	326.120279176625	0.2999267578125	32
319.999999192078	0.000126953125	336.120279151378	0.300018310546875	33
329.99999916683	0.00013616943359375	346.12027912613	0.29998779296875	34
339.999999141583	0.0001229248046875	356.120279100883	0.29998779296875	35
349.999999116335	0.000116790771484375	366.120279075635	0.299957275390625	36
359.999999091087	0.00012078857421875	376.120279050388	0.2999267578125	37
369.99999906584	0.00012506103515625	386.12027902514	0.29998779296875	38
379.999999040592	0.000122344970703125	396.120278999892	0.2999267578125	39
389.999999015345	0.000125823974609375	406.120278974645	0.300079345703125	40
399.999998990097	0.000126373291015625	416.120278949397	0.300018310546875	41
409.99999896485	0.000122650146484375	426.12027892415	0.299957275390625	42
419.999998939602	0.000132965087890625	436.120278898902	0.29998779296875	43
429.999998914354	0.000123687744140625	446.120278873655	0.300018310546875	44
439.999998889107	0.000120208740234375	456.120278848407	0.299957275390625	45
449.999998863859	0.000113677978515625	466.120278823159	0.299957275390625	46
459.999998838612	0.000127593994140625	476.120278797912	0.2999267578125	47
469.999998813364	0.000128631591796875	486.120278772664	0.299896240234375	48
479.999998788117	0.000114501953125	496.120278747417	0.300018310546875	49
489.999998762869	0.000118438720703125	506.120278722169	0.300048828125	50
499.999998737621	0.00010736083984375	516.120278696922	0.299957275390625	51
509.999998712374	0.000110870361328125	526.120278671674	0.300018310546875	52
519.999998687126	0.0001146240234375	536.120278646426	0.299957275390625	53
529.999998661879	0.000126220703125	546.120278621179	0.300079345703125	54
539.999998636631	0.0001107177734375	556.120278595931	0.299957275390625	55
549.999998611383	0.00011456298828125	566.120278570684	0.299957275390625	56
559.999998586136	0.00010614013671875	576.120278545436	0.29998779296875	57
569.999998560888	0.000110565185546875	586.120278520189	0.300018310546875	58
579.999998535641	0.00010284423828125	596.120278494941	0.299957275390625	59
589.999998510393	0.0001075439453125	606.120278469693	0.300018310546875	60
599.999998485146	0.000111114501953125	616.120278444446	0.300048828125	61
609.999998459898	0.00011529541015625	626.120278419198	0.299896240234375	62
619.99999843465	0.000111053466796875	636.120278393951	0.299957275390625	63
629.999998409403	0.00010137939453125	646.120278368703	0.29998779296875	64
639.999998384155	0.000104156494140625	656.120278343456	0.2999267578125	65
649.999998358908	0.0001065673828125	666.120278318208	0.300018310546875	66
659.99999833366	9.9334716796875E-05	676.12027829296	0.29998779296875	67
669.999998308413	0.000103729248046875	686.120278267713	0.29998779296875	68
679.999998283165	0.000102081298828125	696.120278242465	0.29986572265625	69
689.999998257917	9.930419921875E-05	706.120278217218	0.300048828125	70
699.99999823267	0.0001014404296875	716.12027819197	0.2999267578125	71
709.999998207422	9.9853515625E-05	726.120278166723	0.300079345703125	72
719.999998182175	9.942626953125E-05	736.120278141475	0.300018310546875	73
729.999998156927	0.0001004638671875	746.120278116227	0.300048828125	74
739.99999813168	0.0001005859375	756.12027809098	0.29998779296875	75
749.999998106432	0.000102081298828125	766.120278065732	0.300018310546875	76
759.999998081184	0.000100311279296875	776.120278040485	0.300018310546875	77
769.999998055937	9.259033203125E-05	786.120278015237	0.299957275390625	78
779.999998030689	9.539794921875E-05	796.12027798999	0.29998779296875	79
789.999998005442	9.283447265625E-05	806.120277964742	0.300018310546875	80
799.999997980194	9.320068359375E-05	816.120277939494	0.300048828125	81
809.999997954947	9.3017578125E-05	826.120277914247	0.29998779296875	82
819.999997929699	9.3017578125E-05	836.120277888999	0.299835205078125	83
829.999997904451	9.4818115234375E-05	846.120277863752	0.2998046875	84
839.999997879204	9.332275390625E-05	856.120277838504	0.299774169921875	85
849.999997853956	9.9884033203125E-05	866.120277813257	0.2998046875	86
859.999997828709	9.423828125E-05	876.120277788009	0.2998046875	87
869.999997803461	9.3475341796875E-05	886.120277762761	0.2999267578125	88
879.999997778214	9.0789794921875E-05	896.120277737514	0.29986572265625	89
889.999997752966	9.332275390625E-05	906.120277712266	0.29986572265625	90
899.999997727718	9.3994140625E-05	916.120277687019	0.299896240234375	91
909.999997702471	9.088134765625E-05	926.120277661771	0.29986572265625	92
919.999997677223	9.31396484375E-05	936.120277636524	0.299896240234375	93
929.999997651976	9.4970703125E-05	946.120277611276	0.299835205078125	94
939.999997626728	9.36279296875E-05	956.120277586028	0.299896240234375	95
949.999997601481	8.63037109375E-05	966.120277560781	0.2998046875	96
959.999997576233	9.3536376953125E-05	976.120277535533	0.2999267578125	97
969.999997550985	9.09423828125E-05	986.120277510286	0.299896240234375	98
979.999997525738	8.624267578125E-05	996.120277485038	0.299957275390625	99
989.99999750049	7.855224609375E-05	1006.12027745979	0.299835205078125	100
999.999997475243	8.441162109375E-05	1016.12027743454	0.2998046875	101
1009.99999745	9.6954345703125E-05	1026.1202774093	0.2999267578125	102
1019.99999742475	8.1268310546875E-05	1036.12027738405	0.299835205078125	103
1029.9999973995	8.160400390625E-05	1046.1202773588	0.2999267578125	104
1039.99999737425	7.84912109375E-05	1056.12027733355	0.2998046875	105
1049.999997349	8.282470703125E-05	1066.12027730831	0.2999267578125	106
1059.99999732376	7.781982421875E-05	1076.12027728306	0.2999267578125	107
1069.99999729851	8.416748046875E-05	1086.12027725781	0.299835205078125	108
1079.99999727326	8.9599609375E-05	1096.12027723256	0.2998046875	109
1089.99999724801	8.67919921875E-05	1106.12027720731	0.2998046875	110
1099.99999722277	8.0535888671875E-05	1116.12027718207	0.299835205078125	111
1109.99999719752	8.30078125E-05	1126.12027715682	0.299774169921875	112
1119.99999717227	8.26416015625E-05	1136.12027713157	0.2999267578125	113
1129.99999714702	7.8155517578125E-05	1146.12027710632	0.2998046875	114
1139.99999712178	7.794189453125E-05	1156.12027708108	0.29986572265625	115
1149.99999709653	7.794189453125E-05	1166.12027705583	0.299896240234375	116
1159.99999707128	7.43408203125E-05	1176.12027703058	0.299774169921875	117
1169.99999704603	8.758544921875E-05	1186.12027700533	0.299896240234375	118
1179.99999702079	7.5347900390625E-05	1196.12027698009	0.2999267578125	119
1189.99999699554	8.4014892578125E-05	1206.12027695484	0.299835205078125	120
1199.99999697029	8.154296875E-05	1216.12027692959	0.2999267578125	121
1209.99999694504	7.794189453125E-05	1226.12027690434	0.299774169921875	122
1219.9999969198	7.3974609375E-05	1236.1202768791	0.299835205078125	123
1229.99999689455	7.77587890625E-05	1246.12027685385	0.299957275390625	124
1239.9999968693	7.06787109375E-05	1256.1202768286	0.29986572265625	125
1249.99999684405	7.48291015625E-05	1266.12027680335	0.29986572265625	126
1259.99999681881	7.1258544921875E-05	1276.12027677811	0.299896240234375	127
1269.99999679356	7.379150390625E-05	1286.12027675286	0.299896240234375	128
1279.99999676831	7.48291015625E-05	1296.12027672761	0.299896240234375	129
1289.99999674306	7.0098876953125E-05	1306.12027670236	0.299835205078125	130
1299.99999671782	7.5927734375E-05	1316.12027667712	0.2999267578125	131
1309.99999669257	7.781982421875E-05	1326.12027665187	0.299835205078125	132
1319.99999666732	7.6812744140625E-05	1336.12027662662	0.2999267578125	133
1329.99999664207	6.878662109375E-05	1346.12027660137	0.299835205078125	134
1339.99999661683	6.878662109375E-05	1356.12027657613	0.2998046875	135
1349.99999659158	7.4493408203125E-05	1366.12027655088	0.299835205078125	136
1359.99999656633	7.2509765625E-05	1376.12027652563	0.299835205078125	137
1369.99999654108	7.000732421875E-05	1386.12027650038	0.2998046875	138
1379.99999651583	7.09228515625E-05	1396.12027647514	0.299896240234375	139
1389.99999649059	6.6925048828125E-05	1406.12027644989	0.29986572265625	140
1399.99999646534	7.01904296875E-05	1416.12027642464	0.299896240234375	141
1409.99999644009	6.6009521484375E-05	1426.12027639939	0.2999267578125	142
1419.99999641484	6.7596435546875E-05	1436.12027637414	0.2998046875	143
1429.9999963896	6.488037109375E-05	1446.1202763489	0.2998046875	144
1439.99999636435	6.671142578125E-05	1456.12027632365	0.299896240234375	145
1449.9999963391	6.9671630859375E-05	1466.1202762984	0.299713134765625	146
1459.99999631385	6.60400390625E-05	1476.12027627315	0.299896240234375	147
1469.99999628861	6.72607421875E-05	1486.12027624791	0.29986572265625	148
1479.99999626336	6.7840576171875E-05	1496.12027622266	0.29986572265625	149
1489.99999623811	6.55517578125E-05	1506.12027619741	0.29986572265625	150
1499.99999621286	7.0220947265625E-05	1516.12027617216	0.2999267578125	151
1509.99999618762	6.036376953125E-05	1526.12027614692	0.2998046875	152
1519.99999616237	6.3995361328125E-05	1536.12027612167	0.299957275390625	153
1529.99999613712	6.1065673828125E-05	1546.12027609642	0.299835205078125	154
1539.99999611187	6.6162109375E-05	1556.12027607117	0.299957275390625	155
1549.99999608663	6.4178466796875E-05	1566.12027604593	0.299896240234375	156
1559.99999606138	6.2103271484375E-05	1576.12027602068	0.299835205078125	157
1569.99999603613	6.31103515625E-05	1586.12027599543	0.29986572265625	158
1579.99999601088	5.9295654296875E-05	1596.12027597018	0.2998046875	159
1589.99999598564	6.25E-05	1606.12027594494	0.299896240234375	160
1599.99999596039	6.292724609375E-05	1616.12027591969	0.29986572265625	161
1609.99999593514	5.99365234375E-05	1626.12027589444	0.299957275390625	162
1619.99999590989	5.9722900390625E-05	1636.12027586919	0.299957275390625	163
1629.99999588465	5.712890625E-05	1646.12027584395	0.2999267578125	164
1639.9999958594	6.0516357421875E-05	1656.1202758187	0.2999267578125	165
1649.99999583415	5.60302734375E-05	1666.12027579345	0.299957275390625	166
1659.9999958089	5.33447265625E-05	1676.1202757682	0.299896240234375	167
1669.99999578366	5.401611328125E-05	1686.12027574296	0.299896240234375	168
1679.99999575841	5.487060546875E-05	1696.12027571771	0.299896240234375	169
1689.99999573316	5.389404296875E-05	1706.12027569246	0.2999267578125	170
1699.99999570791	5.9326171875E-05	1716.12027566721	0.2999267578125	171
1709.99999568267	5.4840087890625E-05	1726.12027564197	0.2999267578125	172
1719.99999565742	5.3070068359375E-05	1736.12027561672	0.299774169921875	173
1729.99999563217	5.609130859375E-05	1746.12027559147	0.2998046875	174
1739.99999560692	5.206298828125E-05	1756.12027556622	0.2998046875	175
1749.99999558167	5.6854248046875E-05	1766.12027554097	0.299835205078125	176
1759.99999555643	5.078125E-05	1776.12027551573	0.29986572265625	177
1769.99999553118	5.4168701171875E-05	1786.12027549048	0.2999267578125	178
1779.99999550593	5.5633544921875E-05	1796.12027546523	0.29986572265625	179
1789.99999548068	5.072021484375E-05	1806.12027543998	0.29986572265625	180
1799.99999545544	4.99267578125E-05	1816.12027541474	0.2999267578125	181
1809.99999543019	4.8736572265625E-05	1826.12027538949	0.299896240234375	182
1819.99999540494	5.2459716796875E-05	1836.12027536424	0.29986572265625	183
1829.99999537969	5.841064453125E-05	1846.12027533899	0.29998779296875	184
1839.99999535445	4.9102783203125E-05	1856.12027531375	0.299896240234375	185
1849.9999953292	4.76104736328125E-05	1866.1202752885	0.299957275390625	186
1859.99999530395	5.33447265625E-05	1876.12027526325	0.2999267578125	187
1869.9999952787	4.83551025390625E-05	1886.120275238	0.2999267578125	188
1879.99999525346	4.72442626953125E-05	1896.12027521276	0.299896240234375	189
1889.99999522821	4.77447509765625E-05	1906.12027518751	0.29986572265625	190
1899.99999520296	4.6484375E-05	1916.12027516226	0.2998046875	191
1909.99999517771	5.0994873046875E-05	1926.12027513701	0.299957275390625	192
1919.99999515247	4.857177734375E-05	1936.12027511177	0.299774169921875	193
1929.99999512722	4.9560546875E-05	1946.12027508652	0.2999267578125	194
1939.99999510197	4.8089599609375E-05	1956.12027506127	0.29998779296875	195
1949.99999507672	4.686279296875E-05	1966.12027503602	0.2999267578125	196
1959.99999505148	5.04150390625E-05	1976.12027501078	0.299957275390625	197
1969.99999502623	4.60784912109375E-05	1986.12027498553	0.29986572265625	198
1979.99999500098	4.2437744140625E-05	1996.12027496028	0.2999267578125	199
1989.99999497573	4.9560546875E-05	2006.12027493503	0.299896240234375	200
1999.99999495049	4.6966552734375E-05	2016.12027490979	0.2999267578125	201
2009.99999492524	4.9224853515625E-05	2026.12027488454	0.300018310546875	202
2019.99999489999	4.27001953125E-05	2036.12027485929	0.2999267578125	203
2029.99999487474	4.33807373046875E-05	2046.12027483404	0.299957275390625	204
2039.9999948495	4.4488525390625E-05	2056.1202748088	0.2998046875	205
2049.99999482425	4.31396484375E-05	2066.12027478355	0.299896240234375	206
2059.999994799	4.462890625E-05	2076.1202747583	0.299896240234375	207
2069.99999477375	4.6075439453125E-05	2086.12027473305	0.2998046875	208
2079.9999947485	4.55902099609375E-05	2096.12027470781	0.299835205078125	209
2089.99999472326	3.97705078125E-05	2106.12027468256	0.29998779296875	210
2099.99999469801	4.15313720703125E-05	2116.12027465731	0.29986572265625	211
2109.99999467276	4.2755126953125E-05	2126.12027463206	0.29998779296875	212
2119.99999464751	4.373779296875E-05	2136.12027460681	0.299835205078125	213
2129.99999462227	4.422607421875E-05	2146.12027458157	0.299835205078125	214
2139.99999459702	4.28070068359375E-05	2156.12027455632	0.29986572265625	215
2149.99999457177	4.03076171875E-05	2166.12027453107	0.299896240234375	216
2159.99999454652	4.1693115234375E-05	2176.12027450582	0.2998046875	217
2169.99999452128	4.0875244140625E-05	2186.12027448058	0.299957275390625	218
2179.99999449603	4.2938232421875E-05	2196.12027445533	0.2998046875	219
2189.99999447078	3.78509521484375E-05	2206.12027443008	0.300018310546875	220
2199.99999444553	4.16778564453125E-05	2216.12027440483	0.29986572265625	221
2209.99999442029	4.0850830078125E-05	2226.12027437959	0.29998779296875	222
2219.99999439504	4.20318603515625E-05	2236.12027435434	0.29986572265625	223
2229.99999436979	3.941650390625E-05	2246.12027432909	0.299896240234375	224
2239.99999434454	4.3426513671875E-05	2256.12027430384	0.299896240234375	225
2249.9999943193	4.022216796875E-05	2266.1202742786	0.299896240234375	226
2259.99999429405	3.77227783203125E-05	2276.12027425335	0.299835205078125	227
2269.9999942688	3.7957763671875E-05	2286.1202742281	0.29986572265625	228
2279.99999424355	3.8092041015625E-05	2296.12027420285	0.299835205078125	229
2289.99999421831	3.9556884765625E-05	2306.12027417761	0.2999267578125	230
2299.99999419306	3.8323974609375E-05	2316.12027415236	0.299896240234375	231
2309.99999416781	3.935546875E-05	2326.12027412711	0.299896240234375	232
2319.99999414256	3.9886474609375E-05	2336.12027410186	0.29998779296875	233
2329.99999411732	3.8916015625E-05	2346.12027407662	0.29986572265625	234
2339.99999409207	3.77838134765625E-05	2356.12027405137	0.29998779296875	235
2349.99999406682	3.51470947265625E-05	2366.12027402612	0.299896240234375	236
2359.99999404157	3.7042236328125E-05	2376.12027400087	0.299957275390625	237
2369.99999401633	3.78021240234375E-05	2386.12027397563	0.299957275390625	238
2379.99999399108	3.76739501953125E-05	2396.12027395038	0.299957275390625	239
2389.99999396583	3.4991455078125E-05	2406.12027392513	0.2999267578125	240
2399.99999394058	3.4637451171875E-05	2416.12027389988	0.299957275390625	241
2409.99999391533	3.42529296875E-05	2426.12027387464	0.299896240234375	242
2419.99999389009	3.63250732421875E-05	2436.12027384939	0.2999267578125	243
2429.99999386484	3.472900390625E-05	2446.12027382414	0.2999267578125	244
2439.99999383959	3.43597412109375E-05	2456.12027379889	0.2999267578125	245
2449.99999381434	3.41705322265625E-05	2466.12027377364	0.29986572265625	246
2459.9999937891	3.47991943359375E-05	2476.1202737484	0.299896240234375	247
2469.99999376385	3.49700927734375E-05	2486.12027372315	0.299957275390625	248
2479.9999937386	3.369140625E-05	2496.1202736979	0.299835205078125	249
2489.99999371335	3.53607177734375E-05	2506.12027367265	0.299896240234375	250
2499.99999368811	3.2861328125E-05	2516.12027364741	0.299957275390625	251
2509.99999366286	3.43994140625E-05	2526.12027362216	0.29986572265625	252
2519.99999363761	3.2550048828125E-05	2536.12027359691	0.299835205078125	253
2529.99999361236	3.21014404296875E-05	2546.12027357166	0.300048828125	254
2539.99999358712	3.14666748046875E-05	2556.12027354642	0.2999267578125	255
2549.99999356187	3.211669921875E-05	2566.12027352117	0.29998779296875	256
2559.99999353662	3.21441650390625E-05	2576.12027349592	0.29998779296875	257
2569.99999351137	3.26812744140625E-05	2586.12027347067	0.299957275390625	258
2579.99999348613	3.10211181640625E-05	2596.12027344543	0.29986572265625	259
2589.99999346088	3.16131591796875E-05	2606.12027342018	0.2999267578125	260
2599.99999343563	3.43414306640625E-05	2616.12027339493	0.299896240234375	261
2609.99999341038	3.233642578125E-05	2626.12027336968	0.2998046875	262
2619.99999338514	3.20281982421875E-05	2636.12027334444	0.300018310546875	263
2629.99999335989	3.4149169921875E-05	2646.12027331919	0.300048828125	264
2639.99999333464	3.226318359375E-05	2656.12027329394	0.299957275390625	265
2649.99999330939	3.262939453125E-05	2666.12027326869	0.2998046875	266
2659.99999328415	3.199462890625E-05	2676.12027324345	0.2999267578125	267
2669.9999932589	3.24188232421875E-05	2686.1202732182	0.29986572265625	268
2679.99999323365	3.048095703125E-05	2696.12027319295	0.299835205078125	269
2689.9999932084	3.05023193359375E-05	2706.1202731677	0.299896240234375	270
2699.99999318316	3.12469482421875E-05	2716.12027314246	0.300048828125	271
2709.99999315791	3.189697265625E-05	2726.12027311721	0.2999267578125	272
2719.99999313266	3.23577880859375E-05	2736.12027309196	0.300018310546875	273
2729.99999310741	2.92572021484375E-05	2746.12027306671	0.2999267578125	274
2739.99999308217	2.708740234375E-05	2756.12027304147	0.299896240234375	275
2749.99999305692	3.0810546875E-05	2766.12027301622	0.2998046875	276
2759.99999303167	2.9034423828125E-05	2776.12027299097	0.2998046875	277
2769.99999300642	3.16680908203125E-05	2786.12027296572	0.300048828125	278
2779.99999298117	2.864990234375E-05	2796.12027294047	0.299896240234375	279
2789.99999295593	2.8350830078125E-05	2806.12027291523	0.29998779296875	280
2799.99999293068	3.0828857421875E-05	2816.12027288998	0.29998779296875	281
2809.99999290543	2.8521728515625E-05	2826.12027286473	0.29998779296875	282
2819.99999288018	3.1005859375E-05	2836.12027283948	0.300018310546875	283
2829.99999285494	2.86529541015625E-05	2846.12027281424	0.29998779296875	284
2839.99999282969	2.65228271484375E-05	2856.12027278899	0.29998779296875	285
2849.99999280444	2.83599853515625E-05	2866.12027276374	0.29998779296875	286
2859.99999277919	2.87994384765625E-05	2876.12027273849	0.29986572265625	287
2869.99999275395	2.7294921875E-05	2886.12027271325	0.299835205078125	288
2879.9999927287	2.65228271484375E-05	2896.120272688	0.29986572265625	289
2889.99999270345	2.66265869140625E-05	2906.12027266275	0.29986572265625	290
2899.9999926782	2.8204345703125E-05	2916.1202726375	0.29998779296875	291
2909.99999265296	2.65289306640625E-05	2926.12027261226	0.29998779296875	292
2919.99999262771	2.93212890625E-05	2936.12027258701	0.29998779296875	293
2929.99999260246	2.68890380859375E-05	2946.12027256176	0.29998779296875	294
2939.99999257721	2.55126953125E-05	2956.12027253651	0.2999267578125	295
2949.99999255197	2.52044677734375E-05	2966.12027251127	0.299896240234375	296
2959.99999252672	2.59368896484375E-05	2976.12027248602	0.2999267578125	297
2969.99999250147	2.63519287109375E-05	2986.12027246077	0.2999267578125	298
2979.99999247622	2.764892578125E-05	2996.12027243552	0.299896240234375	299
2989.99999245098	2.6007080078125E-05	3006.12027241028	0.299957275390625	300
2999.99999242573	2.6458740234375E-05	3016.12027238503	0.29998779296875	301
3009.99999240048	2.54638671875E-05	3026.12027235978	0.29986572265625	302
3019.99999237523	2.58514404296875E-05	3036.12027233453	0.299957275390625	303
3029.99999234999	2.58544921875E-05	3046.12027230929	0.29998779296875	304
3039.99999232474	2.33489990234375E-05	3056.12027228404	0.299835205078125	305
3049.99999229949	2.4554443359375E-05	3066.12027225879	0.299957275390625	306
3059.99999227424	2.542724609375E-05	3076.12027223354	0.300018310546875	307
3069.999992249	2.44873046875E-05	3086.1202722083	0.29986572265625	308
3079.99999222375	2.8228759765625E-05	3096.12027218305	0.2999267578125	309
3089.9999921985	2.50518798828125E-05	3106.1202721578	0.299957275390625	310
3099.99999217325	2.4871826171875E-05	3116.12027213255	0.29986572265625	311
3109.999992148	2.37152099609375E-05	3126.12027210731	0.299835205078125	312
3119.99999212276	2.39715576171875E-05	3136.12027208206	0.299957275390625	313
3129.99999209751	2.4176025390625E-05	3146.12027205681	0.299957275390625	314
3139.99999207226	2.37640380859375E-05	3156.12027203156	0.2999267578125	315
3149.99999204701	2.37518310546875E-05	3166.12027200631	0.29986572265625	316
3159.99999202177	2.2698974609375E-05	3176.12027198107	0.2999267578125	317
3169.99999199652	2.2894287109375E-05	3186.12027195582	0.299957275390625	318
3179.99999197127	2.48870849609375E-05	3196.12027193057	0.299957275390625	319
3189.99999194602	2.315673828125E-05	3206.12027190532	0.300018310546875	320
3199.99999192078	2.2882080078125E-05	3216.12027188008	0.2999267578125	321
3209.99999189553	2.283935546875E-05	3226.12027185483	0.300048828125	322
3219.99999187028	2.269287109375E-05	3236.12027182958	0.2999267578125	323
3229.99999184503	2.40478515625E-05	3246.12027180433	0.29986572265625	324
3239.99999181979	2.242431640625E-05	3256.12027177909	0.2999267578125	325
3249.99999179454	2.24884033203125E-05	3266.12027175384	0.299835205078125	326
3259.99999176929	2.42919921875E-05	3276.12027172859	0.2999267578125	327
3269.99999174404	2.24578857421875E-05	3286.12027170334	0.29986572265625	328
3279.9999917188	2.486572265625E-05	3296.1202716781	0.29998779296875	329
3289.99999169355	2.36175537109375E-05	3306.12027165285	0.2999267578125	330
3299.9999916683	2.325439453125E-05	3316.1202716276	0.300018310546875	331
3309.99999164305	2.291259765625E-05	3326.12027160235	0.29998779296875	332
3319.99999161781	2.1978759765625E-05	3336.12027157711	0.300018310546875	333
3329.99999159256	2.15301513671875E-05	3346.12027155186	0.29998779296875	334
3339.99999156731	2.1612548828125E-05	3356.12027152661	0.299896240234375	335
3349.99999154206	2.15972900390625E-05	3366.12027150136	0.2999267578125	336
3359.99999151682	2.06939697265625E-05	3376.12027147612	0.29986572265625	337
3369.99999149157	2.1014404296875E-05	3386.12027145087	0.2999267578125	338
3379.99999146632	2.18658447265625E-05	3396.12027142562	0.299896240234375	339
3389.99999144107	2.0361328125E-05	3406.12027140037	0.299896240234375	340
3399.99999141583	2.0904541015625E-05	3416.12027137513	0.2998046875	341
3409.99999139058	2.10723876953125E-05	3426.12027134988	0.29986572265625	342
3419.99999136533	2.3162841796875E-05	3436.12027132463	0.299957275390625	343
3429.99999134008	2.16796875E-05	3446.12027129938	0.299957275390625	344
3439.99999131483	2.08831787109375E-05	3456.12027127414	0.2998046875	345
3449.99999128959	2.1807861328125E-05	3466.12027124889	0.299896240234375	346
3459.99999126434	2.08587646484375E-05	3476.12027122364	0.2999267578125	347
3469.99999123909	2.0953369140625E-05	3486.12027119839	0.29998779296875	348
3479.99999121384	2.0391845703125E-05	3496.12027117314	0.29998779296875	349
3489.9999911886	2.00592041015625E-05	3506.1202711479	0.2999267578125	350
3499.99999116335	2.0233154296875E-05	3516.12027112265	0.299957275390625	351
3509.9999911381	1.98883056640625E-05	3526.1202710974	0.300079345703125	352
3519.99999111285	1.92108154296875E-05	3536.12027107215	0.2999267578125	353
3529.99999108761	2.0166015625E-05	3546.12027104691	0.299957275390625	354
3539.99999106236	1.93878173828125E-05	3556.12027102166	0.299896240234375	355
3549.99999103711	1.87652587890625E-05	3566.12027099641	0.299835205078125	356
3559.99999101186	1.96533203125E-05	3576.12027097116	0.299896240234375	357
3569.99999098662	1.9439697265625E-05	3586.12027094592	0.29986572265625	358
3579.99999096137	2.1502685546875E-05	3596.12027092067	0.29986572265625	359
3589.99999093612	1.93939208984375E-05	3606.12027089542	0.29998779296875	360
3599.99999091087	1.99066162109375E-05	3616.12027087017	0.300018310546875	361
3609.99999088563	1.9769287109375E-05	3626.12027084493	0.29986572265625	362
3619.99999086038	1.90338134765625E-05	3636.12027081968	0.299957275390625	363
3629.99999083513	1.85882568359375E-05	3646.12027079443	0.299957275390625	364
3639.99999080988	1.88751220703125E-05	3656.12027076918	0.29986572265625	365
3649.99999078464	1.77947998046875E-05	3666.12027074394	0.2999267578125	366
3659.99999075939	1.86920166015625E-05	3676.12027071869	0.2999267578125	367
3669.99999073414	1.77459716796875E-05	3686.12027069344	0.29998779296875	368
3679.99999070889	1.94549560546875E-05	3696.12027066819	0.29998779296875	369
3689.99999068365	1.81121826171875E-05	3706.12027064295	0.29998779296875	370
3699.9999906584	1.89239501953125E-05	3716.1202706177	0.299957275390625	371
3709.99999063315	1.81182861328125E-05	3726.12027059245	0.299957275390625	372
3719.9999906079	1.8603515625E-05	3736.1202705672	0.2999267578125	373
3729.99999058266	1.8829345703125E-05	3746.12027054196	0.300018310546875	374
3739.99999055741	1.81365966796875E-05	3756.12027051671	0.2999267578125	375
3749.99999053216	2.0550537109375E-05	3766.12027049146	0.300018310546875	376
3759.99999050691	1.91131591796875E-05	3776.12027046621	0.2999267578125	377
3769.99999048167	1.89453125E-05	3786.12027044097	0.300048828125	378
3779.99999045642	1.76666259765625E-05	3796.12027041572	0.299957275390625	379
3789.99999043117	1.82769775390625E-05	3806.12027039047	0.299957275390625	380
3799.99999040592	1.71661376953125E-05	3816.12027036522	0.2999267578125	381
3809.99999038067	1.81304931640625E-05	3826.12027033997	0.299957275390625	382
3819.99999035543	1.826171875E-05	3836.12027031473	0.29986572265625	383
3829.99999033018	1.82220458984375E-05	3846.12027028948	0.299835205078125	384
3839.99999030493	1.8292236328125E-05	3856.12027026423	0.299896240234375	385
3849.99999027968	1.73797607421875E-05	3866.12027023898	0.2999267578125	386
3859.99999025444	1.78253173828125E-05	3876.12027021374	0.299835205078125	387
3869.99999022919	1.67205810546875E-05	3886.12027018849	0.29998779296875	388
3879.99999020394	1.77520751953125E-05	3896.12027016324	0.299896240234375	389
3889.99999017869	1.697998046875E-05	3906.12027013799	0.299957275390625	390
3899.99999015345	1.63818359375E-05	3916.12027011275	0.299957275390625	391
3909.9999901282	1.65924072265625E-05	3926.1202700875	0.299957275390625	392
3919.99999010295	1.6448974609375E-05	3936.12027006225	0.299957275390625	393
3929.9999900777	1.66229248046875E-05	3946.120270037	0.300018310546875	394
3939.99999005246	1.6253662109375E-05	3956.12027001176	0.29998779296875	395
3949.99999002721	1.7254638671875E-05	3966.12026998651	0.29986572265625	396
3959.99999000196	1.5472412109375E-05	3976.12026996126	0.300018310546875	397
3969.99998997671	1.61224365234375E-05	3986.12026993601	0.29986572265625	398
3979.99998995147	1.63482666015625E-05	3996.12026991077	0.299896240234375	399
3989.99998992622	1.634521484375E-05	4006.12026988552	0.300079345703125	400
3999.99998990097	1.6107177734375E-05	4016.12026986027	0.2999267578125	401
4009.99998987572	1.58416748046875E-05	4026.12026983502	0.300018310546875	402
4019.99998985048	1.6497802734375E-05	4036.12026980978	0.300048828125	403
4029.99998982523	1.59637451171875E-05	4046.12026978453	0.300018310546875	404
4039.99998979998	1.58233642578125E-05	4056.12026975928	0.300018310546875	405
4049.99998977473	1.5985107421875E-05	4066.12026973403	0.299957275390625	406
4059.99998974949	1.60491943359375E-05	4076.12026970879	0.30010986328125	407
4069.99998972424	1.69036865234375E-05	4086.12026968354	0.2999267578125	408
4079.99998969899	1.5887451171875E-05	4096.12026965829	0.299896240234375	409
4089.99998967374	1.54510498046875E-05	4106.12026963304	0.300048828125	410
4099.9999896485	1.5887451171875E-05	4116.1202696078	0.2998046875	411
4109.99998962325	1.7529296875E-05	4126.12026958255	0.299957275390625	412
4119.999989598	1.57196044921875E-05	4136.1202695573	0.299896240234375	413
4129.99998957275	1.56524658203125E-05	4146.12026953205	0.299957275390625	414
4139.9999895475	1.7047119140625E-05	4156.12026950681	0.2999267578125	415
4149.99998952226	1.5399169921875E-05	4166.12026948156	0.29998779296875	416
4159.99998949701	1.5924072265625E-05	4176.12026945631	0.29998779296875	417
4169.99998947176	1.51458740234375E-05	4186.12026943106	0.2999267578125	418
4179.99998944651	1.719970703125E-05	4196.12026940581	0.299957275390625	419
4189.99998942127	1.580810546875E-05	4206.12026938057	0.2999267578125	420
4199.99998939602	1.4764404296875E-05	4216.12026935532	0.300048828125	421
4209.99998937077	1.5093994140625E-05	4226.12026933007	0.29986572265625	422
4219.99998934552	1.49017333984375E-05	4236.12026930482	0.300079345703125	423
4229.99998932028	1.4093017578125E-05	4246.12026927958	0.2999267578125	424
4239.99998929503	1.47247314453125E-05	4256.12026925433	0.2999267578125	425
4249.99998926978	1.58203125E-05	4266.12026922908	0.300079345703125	426
4259.99998924453	1.47674560546875E-05	4276.12026920383	0.29998779296875	427
4269.99998921929	1.46697998046875E-05	4286.12026917859	0.300079345703125	428
4279.99998919404	1.45751953125E-05	4296.12026915334	0.29998779296875	429
4289.99998916879	1.4288330078125E-05	4306.12026912809	0.300048828125	430
4299.99998914354	1.47735595703125E-05	4316.12026910284	0.29998779296875	431
4309.9999891183	1.4581298828125E-05	4326.1202690776	0.300018310546875	432
4319.99998909305	1.44073486328125E-05	4336.12026905235	0.29998779296875	433
4329.9999890678	1.4697265625E-05	4346.1202690271	0.29998779296875	434
4339.99998904255	1.38153076171875E-05	4356.12026900185	0.2999267578125	435
4349.99998901731	1.43798828125E-05	4366.12026897661	0.299896240234375	436
4359.99998899206	1.3397216796875E-05	4376.12026895136	0.29986572265625	437
4369.99998896681	1.38702392578125E-05	4386.12026892611	0.300079345703125	438
4379.99998894156	1.48956298828125E-05	4396.12026890086	0.300079345703125	439
4389.99998891632	1.42578125E-05	4406.12026887562	0.299957275390625	440
4399.99998889107	1.39984130859375E-05	4416.12026885037	0.300048828125	441
4409.99998886582	1.44073486328125E-05	4426.12026882512	0.300048828125	442
4419.99998884057	1.385498046875E-05	4436.12026879987	0.299835205078125	443
4429.99998881533	1.36077880859375E-05	4446.12026877463	0.299957275390625	444
4439.99998879008	1.3739013671875E-05	4456.12026874938	0.29986572265625	445
4449.99998876483	1.36688232421875E-05	4466.12026872413	0.299896240234375	446
4459.99998873958	1.38824462890625E-05	4476.12026869888	0.299896240234375	447
4469.99998871433	1.4605712890625E-05	4486.12026867364	0.2999267578125	448
4479.99998868909	1.44439697265625E-05	4496.12026864839	0.299835205078125	449
4489.99998866384	1.3604736328125E-05	4506.12026862314	0.300048828125	450
4499.99998863859	1.3922119140625E-05	4516.12026859789	0.300048828125	451
4509.99998861334	1.34857177734375E-05	4526.12026857264	0.29998779296875	452
4519.9999885881	1.35498046875E-05	4536.1202685474	0.30010986328125	453
4529.99998856285	1.38580322265625E-05	4546.12026852215	0.300018310546875	454
4539.9999885376	1.400146484375E-05	4556.1202684969	0.299896240234375	455
4549.99998851235	1.3275146484375E-05	4566.12026847165	0.29998779296875	456
4559.99998848711	1.3543701171875E-05	4576.12026844641	0.299835205078125	457
4569.99998846186	1.3458251953125E-05	4586.12026842116	0.300018310546875	458
4579.99998843661	1.31927490234375E-05	4596.12026839591	0.299896240234375	459
4589.99998841136	1.43646240234375E-05	4606.12026837066	0.299957275390625	460
4599.99998838612	1.2890625E-05	4616.12026834542	0.2999267578125	461
4609.99998836087	1.30035400390625E-05	4626.12026832017	0.299957275390625	462
4619.99998833562	1.4788818359375E-05	4636.12026829492	0.300048828125	463
4629.99998831037	1.44805908203125E-05	4646.12026826967	0.2999267578125	464
4639.99998828513	1.2890625E-05	4656.12026824443	0.299896240234375	465
4649.99998825988	1.331787109375E-05	4666.12026821918	0.299896240234375	466
4659.99998823463	1.28448486328125E-05	4676.12026819393	0.29998779296875	467
4669.99998820938	1.30706787109375E-05	4686.12026816868	0.300048828125	468
4679.99998818414	1.322021484375E-05	4696.12026814344	0.300048828125	469
4689.99998815889	1.300048828125E-05	4706.12026811819	0.300048828125	470
4699.99998813364	1.29425048828125E-05	4716.12026809294	0.29998779296875	471
4709.99998810839	1.3128662109375E-05	4726.12026806769	0.29998779296875	472
4719.99998808315	1.2408447265625E-05	4736.12026804245	0.300018310546875	473
4729.9999880579	1.259765625E-05	4746.1202680172	0.300079345703125	474
4739.99998803265	1.2384033203125E-05	4756.12026799195	0.299957275390625	475
4749.9999880074	1.35284423828125E-05	4766.1202679667	0.299957275390625	476
4759.99998798216	1.263427734375E-05	4776.12026794146	0.299957275390625	477
4769.99998795691	1.29058837890625E-05	4786.12026791621	0.29998779296875	478
4779.99998793166	1.2969970703125E-05	4796.12026789096	0.299957275390625	479
4789.99998790641	1.21673583984375E-05	4806.12026786571	0.299835205078125	480
4799.99998788117	1.2799072265625E-05	4816.12026784047	0.299835205078125	481
4809.99998785592	1.3226318359375E-05	4826.12026781522	0.2999267578125	482
4819.99998783067	1.256103515625E-05	4836.12026778997	0.2999267578125	483
4829.99998780542	1.31134033203125E-05	4846.12026776472	0.29998779296875	484
4839.99998778017	1.2225341796875E-05	4856.12026773947	0.299957275390625	485
4849.99998775493	1.1944580078125E-05	4866.12026771423	0.300048828125	486
4859.99998772968	1.23992919921875E-05	4876.12026768898	0.300018310546875	487
4869.99998770443	1.334228515625E-05	4886.12026766373	0.300018310546875	488
4879.99998767918	1.22802734375E-05	4896.12026763848	0.300018310546875	489
4889.99998765394	1.279296875E-05	4906.12026761324	0.299896240234375	490
4899.99998762869	1.20697021484375E-05	4916.12026758799	0.300018310546875	491
4909.99998760344	1.173095703125E-05	4926.12026756274	0.299957275390625	492
4919.99998757819	1.278076171875E-05	4936.12026753749	0.2999267578125	493
4929.99998755295	1.25701904296875E-05	4946.12026751225	0.29998779296875	494
4939.9999875277	1.22161865234375E-05	4956.120267487	0.299896240234375	495
4949.99998750245	1.26190185546875E-05	4966.12026746175	0.300048828125	496
4959.9999874772	1.22283935546875E-05	4976.1202674365	0.29998779296875	497
4969.99998745196	1.2396240234375E-05	4986.12026741126	0.29998779296875	498
4979.99998742671	1.1859130859375E-05	4996.12026738601	0.300018310546875	499
4989.99998740146	1.202392578125E-05	5006.12026736076	0.300018310546875	500
4999.99998737621	1.17279052734375E-05	5016.12026733551	0.3001708984375	501
5009.99998735097	1.177978515625E-05	5026.12026731027	0.2999267578125	502
5019.99998732572	1.20147705078125E-05	5036.12026728502	0.299896240234375	503
5029.99998730047	1.20452880859375E-05	5046.12026725977	0.29986572265625	504
5039.99998727522	1.20025634765625E-05	5056.12026723452	0.299835205078125	505
5049.99998724998	1.22772216796875E-05	5066.12026720928	0.300018310546875	506
5059.99998722473	1.24542236328125E-05	5076.12026718403	0.299957275390625	507
5069.99998719948	1.1883544921875E-05	5086.12026715878	0.299896240234375	508
5079.99998717423	1.20880126953125E-05	5096.12026713353	0.300048828125	509
5089.99998714899	1.20452880859375E-05	5106.12026710829	0.29998779296875	510
5099.99998712374	1.27471923828125E-05	5116.12026708304	0.29998779296875	511
5109.99998709849	1.17401123046875E-05	5126.12026705779	0.29998779296875	512
5119.99998707324	1.17584228515625E-05	5136.12026703254	0.299957275390625	513
5129.999987048	1.1517333984375E-05	5146.1202670073	0.299957275390625	514
5139.99998702275	1.22711181640625E-05	5156.12026698205	0.29998779296875	515
5149.9999869975	1.14471435546875E-05	5166.1202669568	0.300018310546875	516
5159.99998697225	1.11053466796875E-05	5176.12026693155	0.29998779296875	517
5169.999986947	1.15966796875E-05	5186.12026690631	0.300048828125	518
5179.99998692176	1.2628173828125E-05	5196.12026688106	0.29998779296875	519
5189.99998689651	1.18804931640625E-05	5206.12026685581	0.29998779296875	520
5199.99998687126	1.0931396484375E-05	5216.12026683056	0.300018310546875	521
5209.99998684601	1.17034912109375E-05	5226.12026680531	0.299957275390625	522
5219.99998682077	1.09588623046875E-05	5236.12026678007	0.300018310546875	523
5229.99998679552	1.13555908203125E-05	5246.12026675482	0.300048828125	524
5239.99998677027	1.116943359375E-05	5256.12026672957	0.29998779296875	525
5249.99998674502	1.08856201171875E-05	5266.12026670432	0.299896240234375	526
5259.99998671978	1.15020751953125E-05	5276.12026667908	0.29998779296875	527
5269.99998669453	1.08123779296875E-05	5286.12026665383	0.300079345703125	528
5279.99998666928	1.11480712890625E-05	5296.12026662858	0.29998779296875	529
5289.99998664403	1.1444091796875E-05	5306.12026660333	0.3001708984375	530
5299.99998661879	1.10321044921875E-05	5316.12026657809	0.300018310546875	531
5309.99998659354	1.11846923828125E-05	5326.12026655284	0.2999267578125	532
5319.99998656829	1.121826171875E-05	5336.12026652759	0.299957275390625	533
5329.99998654304	1.20147705078125E-05	5346.12026650234	0.2999267578125	534
5339.9999865178	1.06719970703125E-05	5356.1202664771	0.29998779296875	535
5349.99998649255	1.09405517578125E-05	5366.12026645185	0.300048828125	536
5359.9999864673	1.11297607421875E-05	5376.1202664266	0.300079345703125	537
5369.99998644205	1.08856201171875E-05	5386.12026640135	0.300018310546875	538
5379.99998641681	1.0882568359375E-05	5396.12026637611	0.300079345703125	539
5389.99998639156	1.0986328125E-05	5406.12026635086	0.29998779296875	540
5399.99998636631	1.072998046875E-05	5416.12026632561	0.29998779296875	541
5409.99998634106	1.14990234375E-05	5426.12026630036	0.300018310546875	542
5419.99998631582	1.14105224609375E-05	5436.12026627512	0.2999267578125	543
5429.99998629057	1.11114501953125E-05	5446.12026624987	0.299957275390625	544
5439.99998626532	1.11785888671875E-05	5456.12026622462	0.29998779296875	545
5449.99998624007	1.06048583984375E-05	5466.12026619937	0.29998779296875	546
5459.99998621483	1.0662841796875E-05	5476.12026617413	0.29998779296875	547
5469.99998618958	1.06353759765625E-05	5486.12026614888	0.300079345703125	548
5479.99998616433	1.05804443359375E-05	5496.12026612363	0.299896240234375	549
5489.99998613908	1.11236572265625E-05	5506.12026609838	0.30010986328125	550
5499.99998611383	1.11968994140625E-05	5516.12026607314	0.30010986328125	551
5509.99998608859	1.1053466796875E-05	5526.12026604789	0.29998779296875	552
5519.99998606334	1.04888916015625E-05	5536.12026602264	0.29998779296875	553
5529.99998603809	1.07666015625E-05	5546.12026599739	0.299957275390625	554
5539.99998601284	1.0546875E-05	5556.12026597214	0.29986572265625	555
5549.9999859876	1.03790283203125E-05	5566.1202659469	0.2999267578125	556
5559.99998596235	1.07879638671875E-05	5576.12026592165	0.299957275390625	557
5569.9999859371	1.11419677734375E-05	5586.1202658964	0.299957275390625	558
5579.99998591185	1.064453125E-05	5596.12026587115	0.29986572265625	559
5589.99998588661	1.13128662109375E-05	5606.12026584591	0.299957275390625	560
5599.99998586136	1.10748291015625E-05	5616.12026582066	0.2999267578125	561
5609.99998583611	1.1138916015625E-05	5626.12026579541	0.299957275390625	562
5619.99998581086	1.1077880859375E-05	5636.12026577016	0.299957275390625	563
5629.99998578562	1.02935791015625E-05	5646.12026574492	0.29986572265625	564
5639.99998576037	1.02447509765625E-05	5656.12026571967	0.300079345703125	565
5649.99998573512	1.0675048828125E-05	5666.12026569442	0.299835205078125	566
5659.99998570987	1.02447509765625E-05	5676.12026566917	0.29986572265625	567
5669.99998568463	1.05865478515625E-05	5686.12026564393	0.299957275390625	568
5679.99998565938	1.10198974609375E-05	5696.12026561868	0.299957275390625	569
5689.99998563413	1.14288330078125E-05	5706.12026559343	0.299957275390625	570
5699.99998560888	1.03057861328125E-05	5716.12026556818	0.29998779296875	571
5709.99998558364	1.04949951171875E-05	5726.12026554294	0.29998779296875	572
5719.99998555839	9.9456787109375E-06	5736.12026551769	0.299896240234375	573
5729.99998553314	1.0272216796875E-05	5746.12026549244	0.299896240234375	574
5739.99998550789	1.03729248046875E-05	5756.12026546719	0.2999267578125	575
5749.99998548265	1.01806640625E-05	5766.12026544195	0.29986572265625	576
5759.9999854574	1.0369873046875E-05	5776.1202654167	0.300018310546875	577
5769.99998543215	1.01470947265625E-05	5786.12026539145	0.2999267578125	578
5779.9999854069	1.04248046875E-05	5796.1202653662	0.300079345703125	579
5789.99998538166	1.02569580078125E-05	5806.12026534096	0.299957275390625	580
5799.99998535641	1.0284423828125E-05	5816.12026531571	0.2999267578125	581
5809.99998533116	1.06109619140625E-05	5826.12026529046	0.300018310546875	582
5819.99998530591	1.04248046875E-05	5836.12026526521	0.300018310546875	583
5829.99998528067	1.03851318359375E-05	5846.12026523997	0.300048828125	584
5839.99998525542	9.881591796875E-06	5856.12026521472	0.299957275390625	585
5849.99998523017	1.08673095703125E-05	5866.12026518947	0.300018310546875	586
5859.99998520492	1.0260009765625E-05	5876.12026516422	0.300048828125	587
5869.99998517967	9.844970703125E-06	5886.12026513897	0.299957275390625	588
5879.99998515443	1.00311279296875E-05	5896.12026511373	0.299957275390625	589
5889.99998512918	1.01287841796875E-05	5906.12026508848	0.29998779296875	590
5899.99998510393	9.9822998046875E-06	5916.12026506323	0.2999267578125	591
5909.99998507868	1.07147216796875E-05	5926.12026503798	0.29986572265625	592
5919.99998505344	1.02752685546875E-05	5936.12026501274	0.299835205078125	593
5929.99998502819	1.0430908203125E-05	5946.12026498749	0.29998779296875	594
5939.99998500294	1.007080078125E-05	5956.12026496224	0.299957275390625	595
5949.99998497769	1.07574462890625E-05	5966.12026493699	0.300018310546875	596
5959.99998495245	1.08673095703125E-05	5976.12026491175	0.300048828125	597
5969.9999849272	1.0150146484375E-05	5986.1202648865	0.300018310546875	598
5979.99998490195	1.0345458984375E-05	5996.12026486125	0.299957275390625	599
5989.9999848767	1.0198974609375E-05	6006.120264836	0.300140380859375	600
5999.99998485146	1.0455322265625E-05	6016.12026481076	0.300018310546875	601
6009.99998482621	1.0211181640625E-05	6026.12026478551	0.300048828125	602
6019.99998480096	1.06658935546875E-05	6036.12026476026	0.2999267578125	603
6029.99998477571	1.0284423828125E-05	6046.12026473501	0.299957275390625	604
6039.99998475047	1.03271484375E-05	6056.12026470977	0.300079345703125	605
6049.99998472522	1.041259765625E-05	6066.12026468452	0.2999267578125	606
6059.99998469997	1.0089111328125E-05	6076.12026465927	0.300018310546875	607
6069.99998467472	1.055908203125E-05	6086.12026463402	0.29998779296875	608
6079.99998464948	1.01043701171875E-05	6096.12026460878	0.300048828125	609
6089.99998462423	9.9151611328125E-06	6106.12026458353	0.300048828125	610
6099.99998459898	1.04034423828125E-05	6116.12026455828	0.29998779296875	611
6109.99998457373	1.0076904296875E-05	6126.12026453303	0.300018310546875	612
6119.99998454849	9.9761962890625E-06	6136.12026450779	0.300018310546875	613
6129.99998452324	9.4757080078125E-06	6146.12026448254	0.300018310546875	614
6139.99998449799	1.004638671875E-05	6156.12026445729	0.300018310546875	615
6149.99998447274	1.016845703125E-05	6166.12026443204	0.300048828125	616
6159.9999844475	1.0504150390625E-05	6176.1202644068	0.29998779296875	617
6169.99998442225	1.0137939453125E-05	6186.12026438155	0.2999267578125	618
6179.999984397	9.8846435546875E-06	6196.1202643563	0.299896240234375	619
6189.99998437175	1.0321044921875E-05	6206.12026433105	0.29986572265625	620
6199.9999843465	1.10748291015625E-05	6216.12026430581	0.29998779296875	621
6209.99998432126	9.844970703125E-06	6226.12026428056	0.300018310546875	622
6219.99998429601	1.0980224609375E-05	6236.12026425531	0.29998779296875	623
6229.99998427076	9.9609375E-06	6246.12026423006	0.300140380859375	624
6239.99998424551	9.930419921875E-06	6256.12026420481	0.2999267578125	625
6249.99998422027	9.6710205078125E-06	6266.12026417957	0.299835205078125	626
6259.99998419502	9.85107421875E-06	6276.12026415432	0.2999267578125	627
6269.99998416977	1.05712890625E-05	6286.12026412907	0.29986572265625	628
6279.99998414452	1.0382080078125E-05	6296.12026410382	0.29998779296875	629
6289.99998411928	9.8541259765625E-06	6306.12026407858	0.2999267578125	630
6299.99998409403	9.8358154296875E-06	6316.12026405333	0.299896240234375	631
6309.99998406878	9.7869873046875E-06	6326.12026402808	0.299896240234375	632
6319.99998404353	9.6649169921875E-06	6336.12026400283	0.2999267578125	633
6329.99998401829	9.7381591796875E-06	6346.12026397759	0.300018310546875	634
6339.99998399304	9.6649169921875E-06	6356.12026395234	0.29986572265625	635
6349.99998396779	9.1949462890625E-06	6366.12026392709	0.29974365234375	636
6359.99998394254	1.02325439453125E-05	6376.12026390184	0.299896240234375	637
6369.9999839173	9.8541259765625E-06	6386.1202638766	0.29974365234375	638
6379.99998389205	9.9578857421875E-06	6396.12026385135	0.299774169921875	639
6389.9999838668	1.0089111328125E-05	6406.1202638261	0.2999267578125	640
6399.99998384155	1.0308837890625E-05	6416.12026380085	0.2998046875	641
6409.99998381631	1.02325439453125E-05	6426.12026377561	0.299957275390625	642
6419.99998379106	9.7137451171875E-06	6436.12026375036	0.299835205078125	643
6429.99998376581	9.820556640625E-06	6446.12026372511	0.29986572265625	644
6439.99998374056	9.7564697265625E-06	6456.12026369986	0.29986572265625	645
6449.99998371532	9.6527099609375E-06	6466.12026367462	0.299774169921875	646
6459.99998369007	9.6282958984375E-06	6476.12026364937	0.299774169921875	647
6469.99998366482	9.9822998046875E-06	6486.12026362412	0.299713134765625	648
6479.99998363957	9.87548828125E-06	6496.12026359887	0.2998046875	649
6489.99998361433	9.7686767578125E-06	6506.12026357363	0.299835205078125	650
6499.99998358908	9.7991943359375E-06	6516.12026354838	0.299896240234375	651
6509.99998356383	9.912109375E-06	6526.12026352313	0.2998046875	652
6519.99998353858	1.048583984375E-05	6536.12026349788	0.29986572265625	653
6529.99998351333	9.8785400390625E-06	6546.12026347264	0.299835205078125	654
6539.99998348809	1.00982666015625E-05	6556.12026344739	0.2999267578125	655
6549.99998346284	1.0333251953125E-05	6566.12026342214	0.2999267578125	656
6559.99998343759	9.8968505859375E-06	6576.12026339689	0.2999267578125	657
6569.99998341234	1.06201171875E-05	6586.12026337164	0.299896240234375	658
6579.9999833871	9.82666015625E-06	6596.1202633464	0.299774169921875	659
6589.99998336185	1.00494384765625E-05	6606.12026332115	0.299774169921875	660
6599.9999833366	9.930419921875E-06	6616.1202632959	0.299774169921875	661
6609.99998331135	9.8480224609375E-06	6626.12026327065	0.2998046875	662
6619.99998328611	9.893798828125E-06	6636.12026324541	0.299957275390625	663
6629.99998326086	1.04522705078125E-05	6646.12026322016	0.299774169921875	664
6639.99998323561	1.00433349609375E-05	6656.12026319491	0.299774169921875	665
6649.99998321036	9.8846435546875E-06	6666.12026316966	0.299835205078125	666
6659.99998318512	1.00433349609375E-05	6676.12026314442	0.2999267578125	667
6669.99998315987	9.9456787109375E-06	6686.12026311917	0.29974365234375	668
6679.99998313462	9.5001220703125E-06	6696.12026309392	0.29986572265625	669
6689.99998310937	9.85107421875E-06	6706.12026306867	0.29986572265625	670
6699.99998308413	9.7015380859375E-06	6716.12026304343	0.299652099609375	671
6709.99998305888	9.9517822265625E-06	6726.12026301818	0.2998046875	672
6719.99998303363	9.8876953125E-06	6736.12026299293	0.299896240234375	673
6729.99998300838	1.05255126953125E-05	6746.12026296768	0.29986572265625	674
6739.99998298314	9.9212646484375E-06	6756.12026294244	0.299835205078125	675
6749.99998295789	1.04034423828125E-05	6766.12026291719	0.2998046875	676
6759.99998293264	9.9029541015625E-06	6776.12026289194	0.299957275390625	677
6769.99998290739	9.7808837890625E-06	6786.12026286669	0.29986572265625	678
6779.99998288215	9.649658203125E-06	6796.12026284145	0.299774169921875	679
6789.9999828569	9.7076416015625E-06	6806.1202628162	0.299896240234375	680
6799.99998283165	1.0687255859375E-05	6816.12026279095	0.299835205078125	681
6809.9999828064	9.9395751953125E-06	6826.1202627657	0.299774169921875	682
6819.99998278116	9.9212646484375E-06	6836.12026274046	0.2998046875	683
6829.99998275591	9.7808837890625E-06	6846.12026271521	0.29986572265625	684
6839.99998273066	9.72900390625E-06	6856.12026268996	0.2998046875	685
6849.99998270541	1.00555419921875E-05	6866.12026266471	0.29974365234375	686
6859.99998268017	1.0089111328125E-05	6876.12026263947	0.2998046875	687
6869.99998265492	1.0302734375E-05	6886.12026261422	0.299896240234375	688
6879.99998262967	9.9884033203125E-06	6896.12026258897	0.2999267578125	689
6889.99998260442	1.02783203125E-05	6906.12026256372	0.29974365234375	690
6899.99998257917	9.77783203125E-06	6916.12026253847	0.299774169921875	691
6909.99998255393	9.8785400390625E-06	6926.12026251323	0.2999267578125	692
6919.99998252868	9.2803955078125E-06	6936.12026248798	0.29986572265625	693
6929.99998250343	9.5977783203125E-06	6946.12026246273	0.299774169921875	694
6939.99998247818	9.6405029296875E-06	6956.12026243748	0.299835205078125	695
6949.99998245294	1.03759765625E-05	6966.12026241224	0.2999267578125	696
6959.99998242769	9.7259521484375E-06	6976.12026238699	0.29974365234375	697
6969.99998240244	9.4970703125E-06	6986.12026236174	0.29986572265625	698
6979.99998237719	1.0015869140625E-05	6996.12026233649	0.2998046875	699
6989.99998235195	9.6435546875E-06	7006.12026231125	0.299774169921875	700
6999.9999823267	9.344482421875E-06	7016.120262286	0.29986572265625	701
7009.99998230145	1.01776123046875E-05	7026.12026226075	0.299896240234375	702
7019.9999822762	1.00982666015625E-05	7036.1202622355	0.299774169921875	703
7029.99998225096	9.5245361328125E-06	7046.12026221026	0.29974365234375	704
7039.99998222571	9.5947265625E-06	7056.12026218501	0.2999267578125	705
7049.99998220046	9.765625E-06	7066.12026215976	0.2998046875	706
7059.99998217521	9.9212646484375E-06	7076.12026213451	0.29974365234375	707
7069.99998214997	9.1888427734375E-06	7086.12026210927	0.299835205078125	708
7079.99998212472	9.765625E-06	7096.12026208402	0.299896240234375	709
7089.99998209947	9.5489501953125E-06	7106.12026205877	0.299774169921875	710
7099.99998207422	9.65576171875E-06	7116.12026203352	0.299774169921875	711
7109.99998204898	9.4635009765625E-06	7126.12026200828	0.29986572265625	712
7119.99998202373	9.588623046875E-06	7136.12026198303	0.2999267578125	713
7129.99998199848	9.4085693359375E-06	7146.12026195778	0.29986572265625	714
7139.99998197323	9.808349609375E-06	7156.12026193253	0.29986572265625	715
7149.99998194799	9.5672607421875E-06	7166.12026190729	0.29974365234375	716
7159.99998192274	9.5672607421875E-06	7176.12026188204	0.299774169921875	717
7169.99998189749	9.7564697265625E-06	7186.12026185679	0.299896240234375	718
7179.99998187224	9.2742919921875E-06	7196.12026183154	0.299835205078125	719
7189.999981847	9.85107421875E-06	7206.1202618063	0.29986572265625	720
7199.99998182175	9.765625E-06	7216.12026178105	0.299896240234375	721
7209.9999817965	9.2681884765625E-06	7226.1202617558	0.299835205078125	722
7219.99998177125	9.564208984375E-06	7236.12026173055	0.29974365234375	723
7229.999981746	9.576416015625E-06	7246.12026170531	0.299835205078125	724
7239.99998172076	9.2864990234375E-06	7256.12026168006	0.2998046875	725
7249.99998169551	1.00494384765625E-05	7266.12026165481	0.299774169921875	726
7259.99998167026	9.85107421875E-06	7276.12026162956	0.2998046875	727
7269.99998164501	9.33837890625E-06	7286.12026160431	0.29986572265625	728
7279.99998161977	9.53369140625E-06	7296.12026157907	0.2998046875	729
7289.99998159452	9.271240234375E-06	7306.12026155382	0.299774169921875	730
7299.99998156927	9.36279296875E-06	7316.12026152857	0.299774169921875	731
7309.99998154402	1.03851318359375E-05	7326.12026150332	0.2998046875	732
7319.99998151878	9.5184326171875E-06	7336.12026147808	0.299835205078125	733
7329.99998149353	9.28955078125E-06	7346.12026145283	0.299957275390625	734
7339.99998146828	9.4024658203125E-06	7356.12026142758	0.299835205078125	735
7349.99998144303	9.7991943359375E-06	7366.12026140233	0.29974365234375	736
7359.99998141779	9.5977783203125E-06	7376.12026137709	0.299835205078125	737
7369.99998139254	1.0076904296875E-05	7386.12026135184	0.29986572265625	738
7379.99998136729	9.014892578125E-06	7396.12026132659	0.2998046875	739
7389.99998134204	1.00677490234375E-05	7406.12026130134	0.299774169921875	740
7399.9999813168	8.984375E-06	7416.1202612761	0.29986572265625	741
7409.99998129155	1.0125732421875E-05	7426.12026125085	0.2996826171875	742
7419.9999812663	9.912109375E-06	7436.1202612256	0.2998046875	743
7429.99998124105	9.4940185546875E-06	7446.12026120035	0.299774169921875	744
7439.99998121581	9.442138671875E-06	7456.12026117511	0.299835205078125	745
7449.99998119056	9.3017578125E-06	7466.12026114986	0.2998046875	746
7459.99998116531	9.185791015625E-06	7476.12026112461	0.299835205078125	747
7469.99998114006	9.5123291015625E-06	7486.12026109936	0.2998046875	748
7479.99998111482	9.307861328125E-06	7496.12026107412	0.29974365234375	749
7489.99998108957	9.3475341796875E-06	7506.12026104887	0.299774169921875	750
7499.99998106432	9.295654296875E-06	7516.12026102362	0.299835205078125	751
7509.99998103907	9.36279296875E-06	7526.12026099837	0.299774169921875	752
7519.99998101383	9.4329833984375E-06	7536.12026097313	0.299896240234375	753
7529.99998098858	9.4390869140625E-06	7546.12026094788	0.299835205078125	754
7539.99998096333	9.8602294921875E-06	7556.12026092263	0.299713134765625	755
7549.99998093808	9.637451171875E-06	7566.12026089738	0.299835205078125	756
7559.99998091283	9.478759765625E-06	7576.12026087214	0.29974365234375	757
7569.99998088759	9.2681884765625E-06	7586.12026084689	0.299835205078125	758
7579.99998086234	9.16748046875E-06	7596.12026082164	0.299896240234375	759
7589.99998083709	9.2315673828125E-06	7606.12026079639	0.29998779296875	760
7599.99998081184	9.3017578125E-06	7616.12026077114	0.299835205078125	761
7609.9999807866	9.912109375E-06	7626.1202607459	0.2999267578125	762
7619.99998076135	9.613037109375E-06	7636.12026072065	0.29986572265625	763
7629.9999807361	9.796142578125E-06	7646.1202606954	0.299713134765625	764
7639.99998071085	8.88671875E-06	7656.12026067015	0.29986572265625	765
7649.99998068561	9.552001953125E-06	7666.12026064491	0.2998046875	766
7659.99998066036	9.3414306640625E-06	7676.12026061966	0.29974365234375	767
7669.99998063511	8.868408203125E-06	7686.12026059441	0.299774169921875	768
7679.99998060986	9.228515625E-06	7696.12026056916	0.29986572265625	769
7689.99998058462	9.1888427734375E-06	7706.12026054392	0.2998046875	770
7699.99998055937	9.7412109375E-06	7716.12026051867	0.2998046875	771
7709.99998053412	9.7625732421875E-06	7726.12026049342	0.2998046875	772
7719.99998050887	9.716796875E-06	7736.12026046817	0.299896240234375	773
7729.99998048363	9.0087890625E-06	7746.12026044293	0.2998046875	774
7739.99998045838	1.00311279296875E-05	7756.12026041768	0.299835205078125	775
7749.99998043313	9.112548828125E-06	7766.12026039243	0.29986572265625	776
7759.99998040788	9.3353271484375E-06	7776.12026036718	0.299957275390625	777
7769.99998038264	9.6710205078125E-06	7786.12026034194	0.299896240234375	778
7779.99998035739	9.24072265625E-06	7796.12026031669	0.299774169921875	779
7789.99998033214	9.2559814453125E-06	7806.12026029144	0.299774169921875	780
7799.99998030689	9.1033935546875E-06	7816.12026026619	0.299835205078125	781
7809.99998028165	9.3994140625E-06	7826.12026024095	0.299835205078125	782
7819.9999802564	9.48486328125E-06	7836.1202602157	0.2998046875	783
7829.99998023115	9.197998046875E-06	7846.12026019045	0.299896240234375	784
7839.9999802059	8.978271484375E-06	7856.1202601652	0.299835205078125	785
7849.99998018066	9.46044921875E-06	7866.12026013996	0.2998046875	786
7859.99998015541	9.27734375E-06	7876.12026011471	0.29974365234375	787
7869.99998013016	9.130859375E-06	7886.12026008946	0.29986572265625	788
7879.99998010491	9.19189453125E-06	7896.12026006421	0.29986572265625	789
7889.99998007967	9.368896484375E-06	7906.12026003897	0.299957275390625	790
7899.99998005442	9.7747802734375E-06	7916.12026001372	0.29974365234375	791
7909.99998002917	9.7320556640625E-06	7926.12025998847	0.299896240234375	792
7919.99998000392	1.00067138671875E-05	7936.12025996322	0.299896240234375	793
7929.99997997867	9.5062255859375E-06	7946.12025993797	0.299896240234375	794
7939.99997995343	9.5733642578125E-06	7956.12025991273	0.299774169921875	795
7949.99997992818	9.423828125E-06	7966.12025988748	0.299774169921875	796
7959.99997990293	8.9569091796875E-06	7976.12025986223	0.2998046875	797
7969.99997987768	9.765625E-06	7986.12025983698	0.29974365234375	798
7979.99997985244	9.9090576171875E-06	7996.12025981174	0.299835205078125	799
7989.99997982719	9.356689453125E-06	8006.12025978649	0.299957275390625	800
7999.99997980194	9.9029541015625E-06	8016.12025976124	0.29986572265625	801
8009.99997977669	9.41162109375E-06	8026.12025973599	0.299896240234375	802
8019.99997975145	9.228515625E-06	8036.12025971075	0.299774169921875	803
8029.9999797262	9.259033203125E-06	8046.1202596855	0.29974365234375	804
8039.99997970095	9.515380859375E-06	8056.12025966025	0.2998046875	805
8049.9999796757	9.3048095703125E-06	8066.120259635	0.299835205078125	806
8059.99997965046	9.625244140625E-06	8076.12025960976	0.299774169921875	807
8069.99997962521	9.9090576171875E-06	8086.12025958451	0.299835205078125	808
8079.99997959996	9.1522216796875E-06	8096.12025955926	0.299835205078125	809
8089.99997957471	9.4024658203125E-06	8106.12025953401	0.2998046875	810
8099.99997954947	8.837890625E-06	8116.12025950877	0.29986572265625	811
8109.99997952422	9.50927734375E-06	8126.12025948352	0.299896240234375	812
8119.99997949897	9.4635009765625E-06	8136.12025945827	0.299713134765625	813
8129.99997947372	9.2803955078125E-06	8146.12025943302	0.2998046875	814
8139.99997944848	9.6923828125E-06	8156.12025940778	0.299835205078125	815
8149.99997942323	9.979248046875E-06	8166.12025938253	0.29974365234375	816
8159.99997939798	9.0789794921875E-06	8176.12025935728	0.299896240234375	817
8169.99997937273	9.50927734375E-06	8186.12025933203	0.299774169921875	818
8179.99997934749	1.01593017578125E-05	8196.12025930679	0.2998046875	819
8189.99997932224	8.905029296875E-06	8206.12025928154	0.299774169921875	820
8199.99997929699	9.7686767578125E-06	8216.12025925629	0.2998046875	821
8209.99997927174	1.01165771484375E-05	8226.12025923104	0.29986572265625	822
8219.9999792465	9.771728515625E-06	8236.1202592058	0.29986572265625	823
8229.99997922125	9.5458984375E-06	8246.12025918055	0.2998046875	824
8239.999979196	9.295654296875E-06	8256.1202591553	0.29974365234375	825
8249.99997917075	9.716796875E-06	8266.12025913005	0.299774169921875	826
8259.9999791455	9.4268798828125E-06	8276.12025910481	0.29974365234375	827
8269.99997912026	9.7503662109375E-06	8286.12025907956	0.299896240234375	828
8279.99997909501	1.00311279296875E-05	8296.12025905431	0.29974365234375	829
8289.99997906976	9.039306640625E-06	8306.12025902906	0.299896240234375	830
8299.99997904451	9.48486328125E-06	8316.12025900382	0.29986572265625	831
8309.99997901927	9.5428466796875E-06	8326.12025897857	0.299774169921875	832
8319.99997899402	9.3841552734375E-06	8336.12025895332	0.2999267578125	833
8329.99997896877	8.8409423828125E-06	8346.12025892807	0.29986572265625	834
8339.99997894352	9.4390869140625E-06	8356.12025890283	0.29986572265625	835
8349.99997891828	9.3048095703125E-06	8366.12025887758	0.299835205078125	836
8359.99997889303	1.14227294921875E-05	8376.12025885233	0.29986572265625	837
8369.99997886778	9.7869873046875E-06	8386.12025882708	0.299774169921875	838
8379.99997884253	9.2132568359375E-06	8396.12025880184	0.300018310546875	839
8389.99997881729	9.344482421875E-06	8406.12025877659	0.299835205078125	840
8399.99997879204	9.7930908203125E-06	8416.12025875134	0.2996826171875	841
8409.99997876679	9.722900390625E-06	8426.12025872609	0.299774169921875	842
8419.99997874154	1.0064697265625E-05	8436.12025870084	0.299652099609375	843
8429.9999787163	9.2498779296875E-06	8446.1202586756	0.299896240234375	844
8439.99997869105	9.58251953125E-06	8456.12025865035	0.299896240234375	845
8449.9999786658	1.02203369140625E-05	8466.1202586251	0.299835205078125	846
8459.99997864055	9.7686767578125E-06	8476.12025859985	0.29998779296875	847
8469.99997861531	1.0101318359375E-05	8486.12025857461	0.299835205078125	848
8479.99997859006	9.5123291015625E-06	8496.12025854936	0.29998779296875	849
8489.99997856481	9.5550537109375E-06	8506.12025852411	0.29986572265625	850
8499.99997853956	9.5611572265625E-06	8516.12025849886	0.2999267578125	851
8509.99997851432	1.02203369140625E-05	8526.12025847362	0.299896240234375	852
8519.99997848907	9.405517578125E-06	8536.12025844837	0.29974365234375	853
8529.99997846382	9.5703125E-06	8546.12025842312	0.299896240234375	854
8539.99997843857	9.7015380859375E-06	8556.12025839787	0.29986572265625	855
8549.99997841333	9.5855712890625E-06	8566.12025837263	0.299835205078125	856
8559.99997838808	1.01470947265625E-05	8576.12025834738	0.2999267578125	857
8569.99997836283	9.89990234375E-06	8586.12025832213	0.2999267578125	858
8579.99997833758	9.4085693359375E-06	8596.12025829688	0.299774169921875	859
8589.99997831233	1.01287841796875E-05	8606.12025827164	0.2999267578125	860
8599.99997828709	8.7158203125E-06	8616.12025824639	0.299774169921875	861
8609.99997826184	9.58251953125E-06	8626.12025822114	0.2999267578125	862
8619.99997823659	9.661865234375E-06	8636.12025819589	0.299835205078125	863
8629.99997821134	9.381103515625E-06	8646.12025817065	0.299896240234375	864
8639.9999781861	9.5245361328125E-06	8656.1202581454	0.2999267578125	865
8649.99997816085	9.6771240234375E-06	8666.12025812015	0.29986572265625	866
8659.9999781356	9.771728515625E-06	8676.1202580949	0.299896240234375	867
8669.99997811035	9.4390869140625E-06	8686.12025806966	0.299835205078125	868
8679.99997808511	9.6893310546875E-06	8696.12025804441	0.2999267578125	869
8689.99997805986	9.619140625E-06	8706.12025801916	0.29986572265625	870
8699.99997803461	8.8409423828125E-06	8716.12025799391	0.299835205078125	871
8709.99997800936	1.00433349609375E-05	8726.12025796867	0.2998046875	872
8719.99997798412	9.5458984375E-06	8736.12025794342	0.299896240234375	873
8729.99997795887	1.080322265625E-05	8746.12025791817	0.29974365234375	874
8739.99997793362	9.2864990234375E-06	8756.12025789292	0.29986572265625	875
8749.99997790837	9.3963623046875E-06	8766.12025786767	0.29986572265625	876
8759.99997788313	1.0882568359375E-05	8776.12025784243	0.299957275390625	877
8769.99997785788	1.0443115234375E-05	8786.12025781718	0.299835205078125	878
8779.99997783263	1.0443115234375E-05	8796.12025779193	0.29986572265625	879
8789.99997780738	9.7076416015625E-06	8806.12025776668	0.29986572265625	880
8799.99997778214	1.03485107421875E-05	8816.12025774144	0.29986572265625	881
8809.99997775689	9.6832275390625E-06	8826.12025771619	0.2998046875	882
8819.99997773164	9.4482421875E-06	8836.12025769094	0.299774169921875	883
8829.99997770639	9.6221923828125E-06	8846.12025766569	0.299713134765625	884
8839.99997768115	9.5733642578125E-06	8856.12025764045	0.299713134765625	885
8849.9999776559	9.686279296875E-06	8866.1202576152	0.2998046875	886
8859.99997763065	1.011962890625E-05	8876.12025758995	0.299774169921875	887
8869.9999776054	9.82666015625E-06	8886.1202575647	0.29986572265625	888
8879.99997758016	1.05194091796875E-05	8896.12025753946	0.29986572265625	889
8889.99997755491	1.0382080078125E-05	8906.12025751421	0.29986572265625	890
8899.99997752966	9.7412109375E-06	8916.12025748896	0.29974365234375	891
8909.99997750441	9.9212646484375E-06	8926.12025746371	0.299713134765625	892
8919.99997747917	9.6710205078125E-06	8936.12025743847	0.299713134765625	893
8929.99997745392	1.0125732421875E-05	8946.12025741322	0.29962158203125	894
8939.99997742867	9.503173828125E-06	8956.12025738797	0.2998046875	895
8949.99997740342	1.05438232421875E-05	8966.12025736272	0.299835205078125	896
8959.99997737817	9.9578857421875E-06	8976.12025733748	0.299713134765625	897
8969.99997735293	1.00616455078125E-05	8986.12025731223	0.299774169921875	898
8979.99997732768	9.3597412109375E-06	8996.12025728698	0.2998046875	899
8989.99997730243	1.01531982421875E-05	9006.12025726173	0.2998046875	900
8999.99997727718	1.048583984375E-05	9016.12025723649	0.2998046875	901
9009.99997725194	1.02813720703125E-05	9026.12025721124	0.299835205078125	902
9019.99997722669	1.0430908203125E-05	9036.12025718599	0.299774169921875	903
9029.99997720144	1.015625E-05	9046.12025716074	0.299774169921875	904
9039.99997717619	1.01287841796875E-05	9056.1202571355	0.29974365234375	905
9049.99997715095	1.044921875E-05	9066.12025711025	0.2999267578125	906
9059.9999771257	1.0113525390625E-05	9076.120257085	0.29986572265625	907
9069.99997710045	1.02569580078125E-05	9086.12025705975	0.29986572265625	908
9079.9999770752	8.9691162109375E-06	9096.1202570345	0.29986572265625	909
9089.99997704996	1.03851318359375E-05	9106.12025700926	0.2998046875	910
9099.99997702471	1.02508544921875E-05	9116.12025698401	0.299774169921875	911
9109.99997699946	9.906005859375E-06	9126.12025695876	0.29974365234375	912
9119.99997697421	9.4329833984375E-06	9136.12025693351	0.299835205078125	913
9129.99997694897	1.06964111328125E-05	9146.12025690827	0.29986572265625	914
9139.99997692372	1.03851318359375E-05	9156.12025688302	0.2998046875	915
9149.99997689847	9.7808837890625E-06	9166.12025685777	0.299774169921875	916
9159.99997687322	1.004638671875E-05	9176.12025683252	0.299774169921875	917
9169.99997684798	1.06903076171875E-05	9186.12025680728	0.2998046875	918
9179.99997682273	1.07818603515625E-05	9196.12025678203	0.2996826171875	919
9189.99997679748	1.06903076171875E-05	9206.12025675678	0.2998046875	920
9199.99997677223	1.03179931640625E-05	9216.12025673153	0.299774169921875	921
9209.99997674699	1.07269287109375E-05	9226.12025670629	0.299774169921875	922
9219.99997672174	1.01837158203125E-05	9236.12025668104	0.299774169921875	923
9229.99997669649	1.0284423828125E-05	9246.12025665579	0.2998046875	924
9239.99997667124	9.844970703125E-06	9256.12025663054	0.2999267578125	925
9249.999976646	1.16546630859375E-05	9266.1202566053	0.2999267578125	926
9259.99997662075	1.02447509765625E-05	9276.12025658005	0.29986572265625	927
9269.9999765955	1.03759765625E-05	9286.1202565548	0.299774169921875	928
9279.99997657025	1.01776123046875E-05	9296.12025652955	0.299774169921875	929
9289.999976545	1.04888916015625E-05	9306.12025650431	0.2999267578125	930
9299.99997651976	1.0675048828125E-05	9316.12025647906	0.29986572265625	931
9309.99997649451	1.12579345703125E-05	9326.12025645381	0.29986572265625	932
9319.99997646926	9.3719482421875E-06	9336.12025642856	0.2998046875	933
9329.99997644401	9.521484375E-06	9346.12025640332	0.2999267578125	934
9339.99997641877	1.0302734375E-05	9356.12025637807	0.2998046875	935
9349.99997639352	1.0467529296875E-05	9366.12025635282	0.29986572265625	936
9359.99997636827	1.0443115234375E-05	9376.12025632757	0.299774169921875	937
9369.99997634302	9.8968505859375E-06	9386.12025630233	0.29974365234375	938
9379.99997631778	1.04248046875E-05	9396.12025627708	0.2998046875	939
9389.99997629253	1.0479736328125E-05	9406.12025625183	0.299774169921875	940
9399.99997626728	1.036376953125E-05	9416.12025622658	0.2998046875	941
9409.99997624203	9.7137451171875E-06	9426.12025620134	0.29986572265625	942
9419.99997621679	9.674072265625E-06	9436.12025617609	0.299835205078125	943
9429.99997619154	9.5672607421875E-06	9446.12025615084	0.29986572265625	944
9439.99997616629	9.08203125E-06	9456.12025612559	0.2999267578125	945
9449.99997614104	1.041259765625E-05	9466.12025610034	0.299835205078125	946
9459.9999761158	1.12091064453125E-05	9476.1202560751	0.29974365234375	947
9469.99997609055	1.0009765625E-05	9486.12025604985	0.29986572265625	948
9479.9999760653	1.0125732421875E-05	9496.1202560246	0.29974365234375	949
9489.99997604005	9.86328125E-06	9506.12025599935	0.299774169921875	950
9499.99997601481	1.01165771484375E-05	9516.12025597411	0.29986572265625	951
9509.99997598956	1.0784912109375E-05	9526.12025594886	0.299835205078125	952
9519.99997596431	1.02142333984375E-05	9536.12025592361	0.29986572265625	953
9529.99997593906	1.065673828125E-05	9546.12025589836	0.2998046875	954
9539.99997591382	1.15692138671875E-05	9556.12025587312	0.29986572265625	955
9549.99997588857	1.01806640625E-05	9566.12025584787	0.299835205078125	956
9559.99997586332	1.04156494140625E-05	9576.12025582262	0.299774169921875	957
9569.99997583807	1.01043701171875E-05	9586.12025579737	0.29974365234375	958
9579.99997581283	1.00341796875E-05	9596.12025577213	0.299835205078125	959
9589.99997578758	1.0101318359375E-05	9606.12025574688	0.2998046875	960
9599.99997576233	1.06903076171875E-05	9616.12025572163	0.29974365234375	961
9609.99997573708	1.08245849609375E-05	9626.12025569638	0.299835205078125	962
9619.99997571183	9.97314453125E-06	9636.12025567114	0.299713134765625	963
9629.99997568659	1.02294921875E-05	9646.12025564589	0.29986572265625	964
9639.99997566134	9.7503662109375E-06	9656.12025562064	0.29986572265625	965
9649.99997563609	1.148681640625E-05	9666.12025559539	0.299774169921875	966
9659.99997561084	1.03302001953125E-05	9676.12025557015	0.29986572265625	967
9669.9999755856	1.03790283203125E-05	9686.1202555449	0.29986572265625	968
9679.99997556035	1.04156494140625E-05	9696.12025551965	0.2998046875	969
9689.9999755351	1.06292724609375E-05	9706.1202554944	0.299896240234375	970
9699.99997550985	9.771728515625E-06	9716.12025546916	0.29986572265625	971
9709.99997548461	1.04644775390625E-05	9726.12025544391	0.299774169921875	972
9719.99997545936	9.649658203125E-06	9736.12025541866	0.2998046875	973
9729.99997543411	1.00921630859375E-05	9746.12025539341	0.2998046875	974
9739.99997540886	1.01104736328125E-05	9756.12025536817	0.299835205078125	975
9749.99997538362	1.0504150390625E-05	9766.12025534292	0.299896240234375	976
9759.99997535837	1.09619140625E-05	9776.12025531767	0.299957275390625	977
9769.99997533312	9.5123291015625E-06	9786.12025529242	0.299896240234375	978
9779.99997530787	1.05804443359375E-05	9796.12025526717	0.299774169921875	979
9789.99997528263	9.7564697265625E-06	9806.12025524193	0.29974365234375	980
9799.99997525738	1.02294921875E-05	9816.12025521668	0.299774169921875	981
9809.99997523213	1.0675048828125E-05	9826.12025519143	0.2998046875	982
9819.99997520688	9.283447265625E-06	9836.12025516618	0.299774169921875	983
9829.99997518164	9.6343994140625E-06	9846.12025514094	0.299835205078125	984
9839.99997515639	1.01409912109375E-05	9856.12025511569	0.299835205078125	985
9849.99997513114	1.0382080078125E-05	9866.12025509044	0.299835205078125	986
9859.99997510589	1.0040283203125E-05	9876.12025506519	0.2998046875	987
9869.99997508065	1.1090087890625E-05	9886.12025503995	0.299957275390625	988
9879.9999750554	9.429931640625E-06	9896.1202550147	0.299896240234375	989
9889.99997503015	1.090087890625E-05	9906.12025498945	0.299774169921875	990
9899.9999750049	1.00311279296875E-05	9916.1202549642	0.29986572265625	991
9909.99997497966	9.7076416015625E-06	9926.12025493896	0.299835205078125	992
9919.99997495441	9.06982421875E-06	9936.12025491371	0.299835205078125	993
9929.99997492916	1.0302734375E-05	9946.12025488846	0.29986572265625	994
9939.99997490391	9.5245361328125E-06	9956.12025486321	0.299835205078125	995
9949.99997487866	1.0272216796875E-05	9966.12025483797	0.29974365234375	996
9959.99997485342	1.080322265625E-05	9976.12025481272	0.29986572265625	997
9969.99997482817	9.8480224609375E-06	9986.12025478747	0.29986572265625	998
9979.99997480292	9.6527099609375E-06	9996.12025476222	0.2999267578125	999
9989.99997477767	1.09344482421875E-05	10006.120254737	0.2999267578125	1000
9999.99997475243	1.02569580078125E-05	10016.1202547117	0.2998046875	1001
10009.9999747272	9.4451904296875E-06	10026.1202546865	0.2999267578125	1002
10019.9999747019	1.0552978515625E-05	10036.1202546612	0.2998046875	1003
10029.9999746767	9.3719482421875E-06	10046.120254636	0.2999267578125	1004
10039.9999746514	1.026611328125E-05	10056.1202546107	0.299896240234375	1005
10049.9999746262	9.4482421875E-06	10066.1202545855	0.299835205078125	1006
10059.9999746009	1.0296630859375E-05	10076.1202545602	0.29986572265625	1007
10069.9999745757	1.0064697265625E-05	10086.120254535	0.299774169921875	1008
10079.9999745504	1.07269287109375E-05	10096.1202545097	0.2999267578125	1009
10089.9999745252	9.3597412109375E-06	10106.1202544845	0.2999267578125	1010
10099.9999745	9.149169921875E-06	10116.1202544593	0.29986572265625	1011
10109.9999744747	1.14288330078125E-05	10126.120254434	0.299957275390625	1012
10119.9999744495	1.00250244140625E-05	10136.1202544088	0.299835205078125	1013
10129.9999744242	1.08734130859375E-05	10146.1202543835	0.299774169921875	1014
10139.999974399	1.03668212890625E-05	10156.1202543583	0.299774169921875	1015
10149.9999743737	9.210205078125E-06	10166.120254333	0.299896240234375	1016
10159.9999743485	1.0504150390625E-05	10176.1202543078	0.299896240234375	1017
10169.9999743232	1.10015869140625E-05	10186.1202542825	0.29974365234375	1018
10179.999974298	1.116943359375E-05	10196.1202542573	0.2998046875	1019
10189.9999742727	1.05194091796875E-05	10206.120254232	0.299835205078125	1020
10199.9999742475	9.33837890625E-06	10216.1202542068	0.299835205078125	1021
10209.9999742222	1.03363037109375E-05	10226.1202541815	0.299835205078125	1022
10219.999974197	1.04339599609375E-05	10236.1202541563	0.299835205078125	1023
10229.9999741717	9.3719482421875E-06	10246.120254131	0.2999267578125	1024
10239.9999741465	9.7076416015625E-06	10256.1202541058	0.29986572265625	1025
10249.9999741212	1.04522705078125E-05	10266.1202540805	0.2998046875	1026
10259.999974096	9.844970703125E-06	10276.1202540553	0.299835205078125	1027
10269.9999740707	9.6038818359375E-06	10286.12025403	0.29974365234375	1028
10279.9999740455	9.356689453125E-06	10296.1202540048	0.299835205078125	1029
10289.9999740202	1.08642578125E-05	10306.1202539795	0.2999267578125	1030
10299.999973995	1.048583984375E-05	10316.1202539543	0.299896240234375	1031
10309.9999739698	1.02783203125E-05	10326.1202539291	0.299896240234375	1032
10319.9999739445	1.01104736328125E-05	10336.1202539038	0.299835205078125	1033
10329.9999739193	9.3292236328125E-06	10346.1202538786	0.299896240234375	1034
10339.999973894	9.991455078125E-06	10356.1202538533	0.299896240234375	1035
10349.9999738688	9.088134765625E-06	10366.1202538281	0.299835205078125	1036
10359.9999738435	9.9945068359375E-06	10376.1202538028	0.299835205078125	1037
10369.9999738183	9.02099609375E-06	10386.1202537776	0.29986572265625	1038
10379.999973793	9.5428466796875E-06	10396.1202537523	0.299896240234375	1039
10389.9999737678	1.11083984375E-05	10406.1202537271	0.2998046875	1040
10399.9999737425	1.0748291015625E-05	10416.1202537018	0.2998046875	1041
10409.9999737173	1.05804443359375E-05	10426.1202536766	0.299774169921875	1042
10419.999973692	9.5367431640625E-06	10436.1202536513	0.299774169921875	1043
10429.9999736668	1.0009765625E-05	10446.1202536261	0.29986572265625	1044
10439.9999736415	1.024169921875E-05	10456.1202536008	0.299896240234375	1045
10449.9999736163	1.0614013671875E-05	10466.1202535756	0.299896240234375	1046
10459.999973591	1.01531982421875E-05	10476.1202535503	0.299774169921875	1047
10469.9999735658	9.4970703125E-06	10486.1202535251	0.299957275390625	1048
10479.9999735405	1.12518310546875E-05	10496.1202534998	0.2998046875	1049
10489.9999735153	1.092529296875E-05	10506.1202534746	0.299957275390625	1050
10499.99997349	9.4696044921875E-06	10516.1202534494	0.299835205078125	1051
10509.9999734648	1.09771728515625E-05	10526.1202534241	0.2999267578125	1052
10519.9999734396	1.02935791015625E-05	10536.1202533989	0.299835205078125	1053
10529.9999734143	1.092529296875E-05	10546.1202533736	0.29974365234375	1054
10539.9999733891	1.10382080078125E-05	10556.1202533484	0.2998046875	1055
10549.9999733638	1.2518310546875E-05	10566.1202533231	0.299713134765625	1056
10559.9999733386	1.22100830078125E-05	10576.1202532979	0.2998046875	1057
10569.9999733133	1.3006591796875E-05	10586.1202532726	0.2998046875	1058
10579.9999732881	1.22406005859375E-05	10596.1202532474	0.29974365234375	1059
10589.9999732628	1.28936767578125E-05	10606.1202532221	0.299774169921875	1060
10599.9999732376	1.35833740234375E-05	10616.1202531969	0.299713134765625	1061
10609.9999732123	1.18560791015625E-05	10626.1202531716	0.299774169921875	1062
10619.9999731871	1.3958740234375E-05	10636.1202531464	0.29974365234375	1063
10629.9999731618	1.343994140625E-05	10646.1202531211	0.29974365234375	1064
10639.9999731366	1.3232421875E-05	10656.1202530959	0.299774169921875	1065
10649.9999731113	1.34063720703125E-05	10666.1202530706	0.2998046875	1066
10659.9999730861	1.34490966796875E-05	10676.1202530454	0.299774169921875	1067
10669.9999730608	1.279296875E-05	10686.1202530201	0.29974365234375	1068
10679.9999730356	1.27197265625E-05	10696.1202529949	0.2998046875	1069
10689.9999730103	1.500244140625E-05	10706.1202529696	0.2996826171875	1070
10699.9999729851	1.337890625E-05	10716.1202529444	0.299835205078125	1071
10709.9999729598	1.36322021484375E-05	10726.1202529192	0.299713134765625	1072
10719.9999729346	1.18865966796875E-05	10736.1202528939	0.2998046875	1073
10729.9999729094	1.3623046875E-05	10746.1202528687	0.29986572265625	1074
10739.9999728841	1.2017822265625E-05	10756.1202528434	0.299835205078125	1075
10749.9999728589	1.27960205078125E-05	10766.1202528182	0.299713134765625	1076
10759.9999728336	1.49169921875E-05	10776.1202527929	0.2998046875	1077
10769.9999728084	1.25885009765625E-05	10786.1202527677	0.2996826171875	1078
10779.9999727831	1.19293212890625E-05	10796.1202527424	0.2998046875	1079
10789.9999727579	1.29241943359375E-05	10806.1202527172	0.2996826171875	1080
10799.9999727326	1.2176513671875E-05	10816.1202526919	0.299896240234375	1081
10809.9999727074	1.4398193359375E-05	10826.1202526667	0.2996826171875	1082
