Corrected time (s)	WE(1).Current (A)	Time (s)	WE(1).Potential (V)	Index
0	0.0007135009765625	15.795173960121	0.79986572265625	1
9.99999997475243	0.0007061767578125	25.7951739348734	0.8001708984375	2
19.9999999495049	0.0005908203125	35.7951739096259	0.799560546875	3
29.9999999242573	0.000562744140625	45.7951738843783	0.79986572265625	4
39.9999998990097	0.00056243896484375	55.7951738591307	0.7989501953125	5
49.9999998737621	0.000616455078125	65.7951738338832	0.80047607421875	6
59.9999998485146	0.0005023193359375	75.7951738086356	0.79986572265625	7
69.999999823267	0.0005584716796875	85.795173783388	0.79864501953125	8
79.9999997980194	0.00055511474609375	95.7951737581404	0.799560546875	9
89.9999997727718	0.00051483154296875	105.795173732893	0.79864501953125	10
99.9999997475243	0.000472503662109375	115.795173707645	0.799560546875	11
109.999999722277	0.00053558349609375	125.795173682398	0.7989501953125	12
119.999999697029	0.00052093505859375	135.79517365715	0.799560546875	13
129.999999671782	0.000469024658203125	145.795173631903	0.8001708984375	14
139.999999646534	0.000447784423828125	155.795173606655	0.79986572265625	15
149.999999621286	0.000437469482421875	165.795173581407	0.79925537109375	16
159.999999596039	0.000425994873046875	175.79517355616	0.79925537109375	17
169.999999570791	0.00045062255859375	185.795173530912	0.79986572265625	18
179.999999545544	0.00044635009765625	195.795173505665	0.80078125	19
189.999999520296	0.00039111328125	205.795173480417	0.79986572265625	20
199.999999495049	0.000409332275390625	215.79517345517	0.7989501953125	21
209.999999469801	0.000424407958984375	225.795173429922	0.7989501953125	22
219.999999444553	0.000379547119140625	235.795173404674	0.79925537109375	23
229.999999419306	0.0003968505859375	245.795173379427	0.79925537109375	24
239.999999394058	0.000338897705078125	255.795173354179	0.8001708984375	25
249.999999368811	0.00037969970703125	265.795173328932	0.79925537109375	26
259.999999343563	0.000342041015625	275.795173303684	0.79925537109375	27
269.999999318316	0.00037396240234375	285.795173278437	0.79986572265625	28
279.999999293068	0.00033184814453125	295.795173253189	0.79925537109375	29
289.99999926782	0.000311279296875	305.795173227941	0.79925537109375	30
299.999999242573	0.000306640625	315.795173202694	0.799560546875	31
309.999999217325	0.0002469482421875	325.795173177446	0.80047607421875	32
319.999999192078	0.000333953857421875	335.795173152199	0.79925537109375	33
329.99999916683	0.000302032470703125	345.795173126951	0.79986572265625	34
339.999999141583	0.000296661376953125	355.795173101704	0.799560546875	35
349.999999116335	0.00028411865234375	365.795173076456	0.79986572265625	36
359.999999091087	0.000291046142578125	375.795173051208	0.79986572265625	37
369.99999906584	0.000283782958984375	385.795173025961	0.8001708984375	38
379.999999040592	0.00026513671875	395.795173000713	0.8001708984375	39
389.999999015345	0.00025872802734375	405.795172975466	0.79986572265625	40
399.999998990097	0.000243743896484375	415.795172950218	0.799560546875	41
409.99999896485	0.000241729736328125	425.795172924971	0.799560546875	42
419.999998939602	0.00023638916015625	435.795172899723	0.79986572265625	43
429.999998914354	0.00023736572265625	445.795172874475	0.79925537109375	44
439.999998889107	0.000258453369140625	455.795172849228	0.8001708984375	45
449.999998863859	0.0002352294921875	465.79517282398	0.79986572265625	46
459.999998838612	0.00021380615234375	475.795172798733	0.79925537109375	47
469.999998813364	0.000200164794921875	485.795172773485	0.79986572265625	48
479.999998788117	0.000184112548828125	495.795172748238	0.8001708984375	49
489.999998762869	0.000192657470703125	505.79517272299	0.79925537109375	50
499.999998737621	0.00019512939453125	515.795172697742	0.79925537109375	51
509.999998712374	0.000191192626953125	525.795172672495	0.79925537109375	52
519.999998687126	0.00021337890625	535.795172647247	0.8001708984375	53
529.999998661879	0.000175384521484375	545.795172622	0.79925537109375	54
539.999998636631	0.00016888427734375	555.795172596752	0.799560546875	55
549.999998611383	0.0001805419921875	565.795172571505	0.79986572265625	56
559.999998586136	0.000185699462890625	575.795172546257	0.80047607421875	57
569.999998560888	0.000163360595703125	585.795172521009	0.799560546875	58
579.999998535641	0.000164398193359375	595.795172495762	0.80108642578125	59
589.999998510393	0.000149932861328125	605.795172470514	0.799560546875	60
599.999998485146	0.00015753173828125	615.795172445267	0.7989501953125	61
609.999998459898	0.000140045166015625	625.795172420019	0.7989501953125	62
619.99999843465	0.00014471435546875	635.795172394772	0.79986572265625	63
629.999998409403	0.000134246826171875	645.795172369524	0.799560546875	64
639.999998384155	0.000131805419921875	655.795172344276	0.7989501953125	65
649.999998358908	0.000131317138671875	665.795172319029	0.799560546875	66
659.99999833366	0.000126434326171875	675.795172293781	0.799560546875	67
669.999998308413	0.00012371826171875	685.795172268534	0.799560546875	68
679.999998283165	0.0001182861328125	695.795172243286	0.79925537109375	69
689.999998257917	0.000112457275390625	705.795172218038	0.799560546875	70
699.99999823267	0.00012518310546875	715.795172192791	0.799560546875	71
709.999998207422	0.000114013671875	725.795172167543	0.799560546875	72
719.999998182175	0.000105255126953125	735.795172142296	0.799560546875	73
729.999998156927	0.000114105224609375	745.795172117048	0.79986572265625	74
739.99999813168	0.000116180419921875	755.795172091801	0.8001708984375	75
749.999998106432	9.967041015625E-05	765.795172066553	0.79986572265625	76
759.999998081184	0.00010589599609375	775.795172041305	0.79986572265625	77
769.999998055937	0.00010321044921875	785.795172016058	0.799560546875	78
779.999998030689	9.65576171875E-05	795.79517199081	0.7989501953125	79
789.999998005442	9.405517578125E-05	805.795171965563	0.79925537109375	80
799.999997980194	8.502197265625E-05	815.795171940315	0.79986572265625	81
809.999997954947	9.33837890625E-05	825.795171915068	0.8001708984375	82
819.999997929699	9.5733642578125E-05	835.79517188982	0.79925537109375	83
829.999997904451	8.7188720703125E-05	845.795171864572	0.799560546875	84
839.999997879204	7.8857421875E-05	855.795171839325	0.8001708984375	85
849.999997853956	7.9803466796875E-05	865.795171814077	0.79986572265625	86
859.999997828709	8.026123046875E-05	875.79517178883	0.799560546875	87
869.999997803461	7.4554443359375E-05	885.795171763582	0.799560546875	88
879.999997778214	7.2418212890625E-05	895.795171738335	0.79925537109375	89
889.999997752966	7.4493408203125E-05	905.795171713087	0.7989501953125	90
899.999997727718	7.0953369140625E-05	915.795171687839	0.7989501953125	91
909.999997702471	7.16552734375E-05	925.795171662592	0.79925537109375	92
919.999997677223	7.5653076171875E-05	935.795171637344	0.7989501953125	93
929.999997651976	6.475830078125E-05	945.795171612097	0.79986572265625	94
939.999997626728	6.4117431640625E-05	955.795171586849	0.79986572265625	95
949.999997601481	6.65283203125E-05	965.795171561602	0.799560546875	96
959.999997576233	6.2744140625E-05	975.795171536354	0.80047607421875	97
969.999997550985	6.2957763671875E-05	985.795171511106	0.80047607421875	98
979.999997525738	5.9234619140625E-05	995.795171485859	0.79925537109375	99
989.99999750049	5.4351806640625E-05	1005.79517146061	0.79925537109375	100
999.999997475243	5.04150390625E-05	1015.79517143536	0.799560546875	101
1009.99999745	5.9173583984375E-05	1025.79517141012	0.79986572265625	102
1019.99999742475	5.33447265625E-05	1035.79517138487	0.799560546875	103
1029.9999973995	5.4962158203125E-05	1045.79517135962	0.7989501953125	104
1039.99999737425	5.7373046875E-05	1055.79517133437	0.799560546875	105
1049.999997349	5.2337646484375E-05	1065.79517130913	0.7989501953125	106
1059.99999732376	4.840087890625E-05	1075.79517128388	0.799560546875	107
1069.99999729851	4.974365234375E-05	1085.79517125863	0.79925537109375	108
1079.99999727326	4.28192138671875E-05	1095.79517123338	0.799560546875	109
1089.99999724801	4.7027587890625E-05	1105.79517120814	0.799560546875	110
1099.99999722277	4.4189453125E-05	1115.79517118289	0.79925537109375	111
1109.99999719752	4.4671630859375E-05	1125.79517115764	0.79986572265625	112
1119.99999717227	4.3878173828125E-05	1135.79517113239	0.79986572265625	113
1129.99999714702	4.130859375E-05	1145.79517110715	0.80047607421875	114
1139.99999712178	4.51446533203125E-05	1155.7951710819	0.79986572265625	115
1149.99999709653	4.1162109375E-05	1165.79517105665	0.8001708984375	116
1159.99999707128	4.08660888671875E-05	1175.7951710314	0.79986572265625	117
1169.99999704603	4.45343017578125E-05	1185.79517100616	0.80047607421875	118
1179.99999702079	4.04632568359375E-05	1195.79517098091	0.799560546875	119
1189.99999699554	4.2462158203125E-05	1205.79517095566	0.799560546875	120
1199.99999697029	3.91876220703125E-05	1215.79517093041	0.79864501953125	121
1209.99999694504	3.9599609375E-05	1225.79517090516	0.799560546875	122
1219.9999969198	3.8201904296875E-05	1235.79517087992	0.79925537109375	123
1229.99999689455	3.89495849609375E-05	1245.79517085467	0.79925537109375	124
1239.9999968693	4.1180419921875E-05	1255.79517082942	0.799560546875	125
1249.99999684405	3.66455078125E-05	1265.79517080417	0.799560546875	126
1259.99999681881	3.7408447265625E-05	1275.79517077893	0.80078125	127
1269.99999679356	3.1134033203125E-05	1285.79517075368	0.79986572265625	128
1279.99999676831	3.8677978515625E-05	1295.79517072843	0.79925537109375	129
1289.99999674306	3.677978515625E-05	1305.79517070318	0.79925537109375	130
1299.99999671782	3.6334228515625E-05	1315.79517067794	0.799560546875	131
1309.99999669257	3.6810302734375E-05	1325.79517065269	0.79986572265625	132
1319.99999666732	3.37493896484375E-05	1335.79517062744	0.799560546875	133
1329.99999664207	3.18206787109375E-05	1345.79517060219	0.7989501953125	134
1339.99999661683	3.56658935546875E-05	1355.79517057695	0.79986572265625	135
1349.99999659158	3.316650390625E-05	1365.7951705517	0.8001708984375	136
1359.99999656633	3.6370849609375E-05	1375.79517052645	0.79986572265625	137
1369.99999654108	3.11126708984375E-05	1385.7951705012	0.8001708984375	138
1379.99999651583	3.1060791015625E-05	1395.79517047596	0.79986572265625	139
1389.99999649059	3.179931640625E-05	1405.79517045071	0.79925537109375	140
1399.99999646534	3.17138671875E-05	1415.79517042546	0.799560546875	141
1409.99999644009	3.0255126953125E-05	1425.79517040021	0.79925537109375	142
1419.99999641484	3.04779052734375E-05	1435.79517037497	0.79925537109375	143
1429.9999963896	3.1182861328125E-05	1445.79517034972	0.8001708984375	144
1439.99999636435	3.07159423828125E-05	1455.79517032447	0.8001708984375	145
1449.9999963391	3.26171875E-05	1465.79517029922	0.79986572265625	146
1459.99999631385	2.957763671875E-05	1475.79517027398	0.7989501953125	147
1469.99999628861	2.70965576171875E-05	1485.79517024873	0.7989501953125	148
1479.99999626336	3.079833984375E-05	1495.79517022348	0.7989501953125	149
1489.99999623811	3.074951171875E-05	1505.79517019823	0.79986572265625	150
1499.99999621286	3.00506591796875E-05	1515.79517017299	0.8001708984375	151
1509.99999618762	2.98553466796875E-05	1525.79517014774	0.79986572265625	152
1519.99999616237	2.7703857421875E-05	1535.79517012249	0.80047607421875	153
1529.99999613712	2.794189453125E-05	1545.79517009724	0.80047607421875	154
1539.99999611187	2.9510498046875E-05	1555.79517007199	0.79986572265625	155
1549.99999608663	2.92449951171875E-05	1565.79517004675	0.79925537109375	156
1559.99999606138	2.80914306640625E-05	1575.7951700215	0.79833984375	157
1569.99999603613	2.7886962890625E-05	1585.79516999625	0.799560546875	158
1579.99999601088	2.64923095703125E-05	1595.795169971	0.7989501953125	159
1589.99999598564	2.7142333984375E-05	1605.79516994576	0.79986572265625	160
1599.99999596039	2.899169921875E-05	1615.79516992051	0.7989501953125	161
1609.99999593514	2.828369140625E-05	1625.79516989526	0.79864501953125	162
1619.99999590989	2.6654052734375E-05	1635.79516987001	0.79864501953125	163
1629.99999588465	2.7154541015625E-05	1645.79516984477	0.79925537109375	164
1639.9999958594	2.47406005859375E-05	1655.79516981952	0.7989501953125	165
1649.99999583415	2.5701904296875E-05	1665.79516979427	0.799560546875	166
1659.9999958089	2.55645751953125E-05	1675.79516976902	0.7989501953125	167
1669.99999578366	2.60040283203125E-05	1685.79516974378	0.79925537109375	168
1679.99999575841	2.73834228515625E-05	1695.79516971853	0.799560546875	169
1689.99999573316	2.59429931640625E-05	1705.79516969328	0.799560546875	170
1699.99999570791	2.674560546875E-05	1715.79516966803	0.799560546875	171
1709.99999568267	2.5927734375E-05	1725.79516964279	0.79986572265625	172
1719.99999565742	2.4859619140625E-05	1735.79516961754	0.799560546875	173
1729.99999563217	2.47222900390625E-05	1745.79516959229	0.79986572265625	174
1739.99999560692	2.4725341796875E-05	1755.79516956704	0.7989501953125	175
1749.99999558167	2.39471435546875E-05	1765.7951695418	0.79925537109375	176
1759.99999555643	2.4737548828125E-05	1775.79516951655	0.79925537109375	177
1769.99999553118	2.58056640625E-05	1785.7951694913	0.79925537109375	178
1779.99999550593	2.36236572265625E-05	1795.79516946605	0.79925537109375	179
1789.99999548068	2.48046875E-05	1805.79516944081	0.7989501953125	180
1799.99999545544	2.3956298828125E-05	1815.79516941556	0.79925537109375	181
1809.99999543019	2.454833984375E-05	1825.79516939031	0.79925537109375	182
1819.99999540494	2.4285888671875E-05	1835.79516936506	0.79925537109375	183
1829.99999537969	2.39288330078125E-05	1845.79516933982	0.7989501953125	184
1839.99999535445	2.36053466796875E-05	1855.79516931457	0.799560546875	185
1849.9999953292	2.3681640625E-05	1865.79516928932	0.79833984375	186
1859.99999530395	2.28363037109375E-05	1875.79516926407	0.79833984375	187
1869.9999952787	2.423095703125E-05	1885.79516923882	0.79925537109375	188
1879.99999525346	2.43438720703125E-05	1895.79516921358	0.79986572265625	189
1889.99999522821	2.5335693359375E-05	1905.79516918833	0.79986572265625	190
1899.99999520296	2.33917236328125E-05	1915.79516916308	0.8001708984375	191
1909.99999517771	2.3138427734375E-05	1925.79516913783	0.80047607421875	192
1919.99999515247	2.15789794921875E-05	1935.79516911259	0.799560546875	193
1929.99999512722	2.4066162109375E-05	1945.79516908734	0.80047607421875	194
1939.99999510197	2.2821044921875E-05	1955.79516906209	0.79986572265625	195
1949.99999507672	2.2943115234375E-05	1965.79516903684	0.79925537109375	196
1959.99999505148	2.19024658203125E-05	1975.7951690116	0.8001708984375	197
1969.99999502623	2.38372802734375E-05	1985.79516898635	0.8001708984375	198
1979.99999500098	2.2332763671875E-05	1995.7951689611	0.8001708984375	199
1989.99999497573	2.210693359375E-05	2005.79516893585	0.79986572265625	200
1999.99999495049	2.25555419921875E-05	2015.79516891061	0.7989501953125	201
2009.99999492524	2.3577880859375E-05	2025.79516888536	0.79925537109375	202
2019.99999489999	2.117919921875E-05	2035.79516886011	0.7989501953125	203
2029.99999487474	2.09564208984375E-05	2045.79516883486	0.79925537109375	204
2039.9999948495	2.1875E-05	2055.79516880962	0.799560546875	205
2049.99999482425	2.16461181640625E-05	2065.79516878437	0.80047607421875	206
2059.999994799	2.15606689453125E-05	2075.79516875912	0.79986572265625	207
2069.99999477375	2.07000732421875E-05	2085.79516873387	0.8001708984375	208
2079.9999947485	2.1771240234375E-05	2095.79516870863	0.79986572265625	209
2089.99999472326	2.03826904296875E-05	2105.79516868338	0.79986572265625	210
2099.99999469801	2.19024658203125E-05	2115.79516865813	0.799560546875	211
2109.99999467276	2.37640380859375E-05	2125.79516863288	0.7989501953125	212
2119.99999464751	2.21282958984375E-05	2135.79516860764	0.79986572265625	213
2129.99999462227	2.17193603515625E-05	2145.79516858239	0.8001708984375	214
2139.99999459702	2.291259765625E-05	2155.79516855714	0.80047607421875	215
2149.99999457177	2.34375E-05	2165.79516853189	0.79986572265625	216
2159.99999454652	2.3193359375E-05	2175.79516850665	0.79925537109375	217
2169.99999452128	2.0941162109375E-05	2185.7951684814	0.80047607421875	218
2179.99999449603	2.030029296875E-05	2195.79516845615	0.799560546875	219
2189.99999447078	2.26806640625E-05	2205.7951684309	0.79986572265625	220
2199.99999444553	2.18963623046875E-05	2215.79516840566	0.79986572265625	221
2209.99999442029	2.110595703125E-05	2225.79516838041	0.79986572265625	222
2219.99999439504	2.0050048828125E-05	2235.79516835516	0.79986572265625	223
2229.99999436979	2.1893310546875E-05	2245.79516832991	0.79925537109375	224
2239.99999434454	2.1563720703125E-05	2255.79516830466	0.799560546875	225
2249.9999943193	2.14630126953125E-05	2265.79516827942	0.79864501953125	226
2259.99999429405	2.02362060546875E-05	2275.79516825417	0.799560546875	227
2269.9999942688	2.07427978515625E-05	2285.79516822892	0.79864501953125	228
2279.99999424355	2.18292236328125E-05	2295.79516820367	0.799560546875	229
2289.99999421831	2.0379638671875E-05	2305.79516817843	0.8001708984375	230
2299.99999419306	2.1551513671875E-05	2315.79516815318	0.7989501953125	231
2309.99999416781	2.1380615234375E-05	2325.79516812793	0.8001708984375	232
2319.99999414256	1.96441650390625E-05	2335.79516810268	0.8001708984375	233
2329.99999411732	2.0147705078125E-05	2345.79516807744	0.80078125	234
2339.99999409207	2.06329345703125E-05	2355.79516805219	0.8001708984375	235
2349.99999406682	2.10357666015625E-05	2365.79516802694	0.79986572265625	236
2359.99999404157	2.18292236328125E-05	2375.79516800169	0.79986572265625	237
2369.99999401633	1.93359375E-05	2385.79516797645	0.79925537109375	238
2379.99999399108	2.0611572265625E-05	2395.7951679512	0.80047607421875	239
2389.99999396583	2.11334228515625E-05	2405.79516792595	0.799560546875	240
2399.99999394058	2.12310791015625E-05	2415.7951679007	0.8001708984375	241
2409.99999391533	1.995849609375E-05	2425.79516787546	0.79925537109375	242
2419.99999389009	1.96807861328125E-05	2435.79516785021	0.79986572265625	243
2429.99999386484	1.9146728515625E-05	2445.79516782496	0.7989501953125	244
2439.99999383959	2.23724365234375E-05	2455.79516779971	0.7989501953125	245
2449.99999381434	1.9915771484375E-05	2465.79516777447	0.799560546875	246
2459.9999937891	2.06878662109375E-05	2475.79516774922	0.8001708984375	247
2469.99999376385	1.96014404296875E-05	2485.79516772397	0.7989501953125	248
2479.9999937386	2.14874267578125E-05	2495.79516769872	0.79925537109375	249
2489.99999371335	2.138671875E-05	2505.79516767348	0.799560546875	250
2499.99999368811	1.9305419921875E-05	2515.79516764823	0.8001708984375	251
2509.99999366286	2.03094482421875E-05	2525.79516762298	0.79925537109375	252
2519.99999363761	2.00927734375E-05	2535.79516759773	0.799560546875	253
2529.99999361236	1.91986083984375E-05	2545.79516757249	0.799560546875	254
2539.99999358712	1.87774658203125E-05	2555.79516754724	0.79986572265625	255
2549.99999356187	2.06268310546875E-05	2565.79516752199	0.80047607421875	256
2559.99999353662	1.88934326171875E-05	2575.79516749674	0.8001708984375	257
2569.99999351137	1.98760986328125E-05	2585.7951674715	0.8001708984375	258
2579.99999348613	1.983642578125E-05	2595.79516744625	0.79925537109375	259
2589.99999346088	2.00469970703125E-05	2605.795167421	0.79925537109375	260
2599.99999343563	2.1466064453125E-05	2615.79516739575	0.79864501953125	261
2609.99999341038	1.99249267578125E-05	2625.7951673705	0.79925537109375	262
2619.99999338514	1.9989013671875E-05	2635.79516734526	0.7989501953125	263
2629.99999335989	2.181396484375E-05	2645.79516732001	0.7989501953125	264
2639.99999333464	1.86798095703125E-05	2655.79516729476	0.799560546875	265
2649.99999330939	1.910400390625E-05	2665.79516726951	0.7989501953125	266
2659.99999328415	1.72210693359375E-05	2675.79516724427	0.8001708984375	267
2669.9999932589	1.90643310546875E-05	2685.79516721902	0.79986572265625	268
2679.99999323365	1.8597412109375E-05	2695.79516719377	0.799560546875	269
2689.9999932084	1.54205322265625E-05	2705.79516716852	0.79925537109375	270
2699.99999318316	1.904296875E-05	2715.79516714328	0.79925537109375	271
2709.99999315791	2.0440673828125E-05	2725.79516711803	0.799560546875	272
2719.99999313266	1.79779052734375E-05	2735.79516709278	0.7989501953125	273
2729.99999310741	1.93511962890625E-05	2745.79516706753	0.7989501953125	274
2739.99999308217	2.15179443359375E-05	2755.79516704229	0.7989501953125	275
2749.99999305692	1.82952880859375E-05	2765.79516701704	0.7989501953125	276
2759.99999303167	1.8310546875E-05	2775.79516699179	0.799560546875	277
2769.99999300642	1.99371337890625E-05	2785.79516696654	0.79986572265625	278
2779.99999298117	2.0025634765625E-05	2795.7951669413	0.799560546875	279
2789.99999295593	1.90887451171875E-05	2805.79516691605	0.79986572265625	280
2799.99999293068	1.9305419921875E-05	2815.7951668908	0.7989501953125	281
2809.99999290543	1.8505859375E-05	2825.79516686555	0.799560546875	282
2819.99999288018	1.7755126953125E-05	2835.79516684031	0.79925537109375	283
2829.99999285494	2.0330810546875E-05	2845.79516681506	0.799560546875	284
2839.99999282969	1.7974853515625E-05	2855.79516678981	0.79925537109375	285
2849.99999280444	1.85211181640625E-05	2865.79516676456	0.7989501953125	286
2859.99999277919	1.93328857421875E-05	2875.79516673932	0.7989501953125	287
2869.99999275395	1.84539794921875E-05	2885.79516671407	0.80047607421875	288
2879.9999927287	2.00225830078125E-05	2895.79516668882	0.8001708984375	289
2889.99999270345	1.79168701171875E-05	2905.79516666357	0.8001708984375	290
2899.9999926782	1.85546875E-05	2915.79516663833	0.80108642578125	291
2909.99999265296	1.7889404296875E-05	2925.79516661308	0.799560546875	292
2919.99999262771	1.8255615234375E-05	2935.79516658783	0.799560546875	293
2929.99999260246	1.751708984375E-05	2945.79516656258	0.7989501953125	294
2939.99999257721	1.81121826171875E-05	2955.79516653733	0.79864501953125	295
2949.99999255197	1.79840087890625E-05	2965.79516651209	0.8001708984375	296
2959.99999252672	1.79046630859375E-05	2975.79516648684	0.79864501953125	297
2969.99999250147	1.97509765625E-05	2985.79516646159	0.79864501953125	298
2979.99999247622	1.927490234375E-05	2995.79516643634	0.7989501953125	299
2989.99999245098	1.86370849609375E-05	3005.7951664111	0.7989501953125	300
2999.99999242573	1.9482421875E-05	3015.79516638585	0.79925537109375	301
3009.99999240048	1.8756103515625E-05	3025.7951663606	0.79864501953125	302
3019.99999237523	1.771240234375E-05	3035.79516633535	0.7989501953125	303
3029.99999234999	1.70013427734375E-05	3045.79516631011	0.79864501953125	304
3039.99999232474	1.822509765625E-05	3055.79516628486	0.79925537109375	305
3049.99999229949	1.7791748046875E-05	3065.79516625961	0.79864501953125	306
3059.99999227424	1.78497314453125E-05	3075.79516623436	0.7989501953125	307
3069.999992249	1.93603515625E-05	3085.79516620912	0.799560546875	308
3079.99999222375	2.008056640625E-05	3095.79516618387	0.799560546875	309
3089.9999921985	1.7791748046875E-05	3105.79516615862	0.799560546875	310
3099.99999217325	1.7877197265625E-05	3115.79516613337	0.80078125	311
3109.999992148	1.73248291015625E-05	3125.79516610813	0.80047607421875	312
3119.99999212276	1.9659423828125E-05	3135.79516608288	0.80047607421875	313
3129.99999209751	1.866455078125E-05	3145.79516605763	0.79986572265625	314
3139.99999207226	1.94793701171875E-05	3155.79516603238	0.799560546875	315
3149.99999204701	2.04681396484375E-05	3165.79516600714	0.7989501953125	316
3159.99999202177	7.5103759765625E-06	3175.79516598189	0.79864501953125	317
3169.99999199652	5.7373046875E-06	3185.79516595664	0.7989501953125	318
3179.99999197127	5.9417724609375E-06	3195.79516593139	0.79864501953125	319
3189.99999194602	6.549072265625E-06	3205.79516590615	0.799560546875	320
3199.99999192078	5.9326171875E-06	3215.7951658809	0.79986572265625	321
3209.99999189553	5.523681640625E-06	3225.79516585565	0.799560546875	322
3219.99999187028	6.4849853515625E-06	3235.7951658304	0.8001708984375	323
3229.99999184503	5.413818359375E-06	3245.79516580516	0.80047607421875	324
3239.99999181979	6.4727783203125E-06	3255.79516577991	0.80047607421875	325
3249.99999179454	1.95892333984375E-05	3265.79516575466	0.80108642578125	326
3259.99999176929	2.12371826171875E-05	3275.79516572941	0.79986572265625	327
3269.99999174404	2.091064453125E-05	3285.79516570416	0.8001708984375	328
3279.9999917188	2.09625244140625E-05	3295.79516567892	0.79925537109375	329
3289.99999169355	2.08251953125E-05	3305.79516565367	0.79864501953125	330
3299.9999916683	1.99432373046875E-05	3315.79516562842	0.79925537109375	331
3309.99999164305	1.82586669921875E-05	3325.79516560317	0.8001708984375	332
3319.99999161781	1.8218994140625E-05	3335.79516557793	0.79986572265625	333
3329.99999159256	1.978759765625E-05	3345.79516555268	0.799560546875	334
3339.99999156731	2.01263427734375E-05	3355.79516552743	0.79986572265625	335
3349.99999154206	1.8182373046875E-05	3365.79516550218	0.79864501953125	336
3359.99999151682	1.88446044921875E-05	3375.79516547694	0.79925537109375	337
3369.99999149157	2.064208984375E-05	3385.79516545169	0.7989501953125	338
3379.99999146632	2.13958740234375E-05	3395.79516542644	0.799560546875	339
3389.99999144107	2.14324951171875E-05	3405.79516540119	0.79986572265625	340
3399.99999141583	1.94244384765625E-05	3415.79516537595	0.80047607421875	341
3409.99999139058	2.16339111328125E-05	3425.7951653507	0.79986572265625	342
3419.99999136533	1.88690185546875E-05	3435.79516532545	0.79925537109375	343
3429.99999134008	1.8682861328125E-05	3445.7951653002	0.799560546875	344
3439.99999131483	1.85638427734375E-05	3455.79516527496	0.799560546875	345
3449.99999128959	1.84234619140625E-05	3465.79516524971	0.7989501953125	346
3459.99999126434	1.9970703125E-05	3475.79516522446	0.79864501953125	347
3469.99999123909	2.09320068359375E-05	3485.79516519921	0.79864501953125	348
3479.99999121384	1.85638427734375E-05	3495.79516517397	0.7989501953125	349
3489.9999911886	1.8017578125E-05	3505.79516514872	0.7989501953125	350
3499.99999116335	1.8267822265625E-05	3515.79516512347	0.79925537109375	351
3509.9999911381	1.8670654296875E-05	3525.79516509822	0.79925537109375	352
3519.99999111285	2.04498291015625E-05	3535.79516507298	0.79864501953125	353
3529.99999108761	1.927490234375E-05	3545.79516504773	0.79864501953125	354
3539.99999106236	1.73980712890625E-05	3555.79516502248	0.79925537109375	355
3549.99999103711	1.96136474609375E-05	3565.79516499723	0.79925537109375	356
3559.99999101186	1.80328369140625E-05	3575.79516497199	0.79833984375	357
3569.99999098662	1.89422607421875E-05	3585.79516494674	0.79925537109375	358
3579.99999096137	1.9818115234375E-05	3595.79516492149	0.79864501953125	359
3589.99999093612	1.55609130859375E-05	3605.79516489624	0.799560546875	360
3599.99999091087	1.73248291015625E-05	3615.795164871	0.799560546875	361
3609.99999088563	1.72271728515625E-05	3625.79516484575	0.799560546875	362
3619.99999086038	1.90399169921875E-05	3635.7951648205	0.80047607421875	363
3629.99999083513	1.75445556640625E-05	3645.79516479525	0.79986572265625	364
3639.99999080988	1.62322998046875E-05	3655.79516477	0.799560546875	365
3649.99999078464	1.91925048828125E-05	3665.79516474476	0.79925537109375	366
3659.99999075939	1.806640625E-05	3675.79516471951	0.79925537109375	367
3669.99999073414	1.6986083984375E-05	3685.79516469426	0.79925537109375	368
3679.99999070889	1.66595458984375E-05	3695.79516466901	0.799560546875	369
3689.99999068365	1.817626953125E-05	3705.79516464377	0.79925537109375	370
3699.9999906584	1.7120361328125E-05	3715.79516461852	0.799560546875	371
3709.99999063315	1.854248046875E-05	3725.79516459327	0.80047607421875	372
3719.9999906079	1.74652099609375E-05	3735.79516456802	0.79925537109375	373
3729.99999058266	1.63604736328125E-05	3745.79516454278	0.799560546875	374
3739.99999055741	1.602783203125E-05	3755.79516451753	0.7989501953125	375
3749.99999053216	1.67327880859375E-05	3765.79516449228	0.80047607421875	376
3759.99999050691	1.6864013671875E-05	3775.79516446703	0.8001708984375	377
3769.99999048167	1.66015625E-05	3785.79516444179	0.799560546875	378
3779.99999045642	1.61834716796875E-05	3795.79516441654	0.80108642578125	379
3789.99999043117	1.60125732421875E-05	3805.79516439129	0.799560546875	380
3799.99999040592	1.4373779296875E-05	3815.79516436604	0.799560546875	381
3809.99999038067	1.60919189453125E-05	3825.7951643408	0.79986572265625	382
3819.99999035543	1.73583984375E-05	3835.79516431555	0.799560546875	383
3829.99999033018	1.79840087890625E-05	3845.7951642903	0.79925537109375	384
3839.99999030493	1.40533447265625E-05	3855.79516426505	0.7989501953125	385
3849.99999027968	1.685791015625E-05	3865.79516423981	0.799560546875	386
3859.99999025444	1.90277099609375E-05	3875.79516421456	0.8001708984375	387
3869.99999022919	1.68365478515625E-05	3885.79516418931	0.8001708984375	388
3879.99999020394	1.700439453125E-05	3895.79516416406	0.79833984375	389
3889.99999017869	1.6119384765625E-05	3905.79516413882	0.799560546875	390
3899.99999015345	1.8585205078125E-05	3915.79516411357	0.799560546875	391
3909.9999901282	1.7401123046875E-05	3925.79516408832	0.799560546875	392
3919.99999010295	1.8157958984375E-05	3935.79516406307	0.80078125	393
3929.9999900777	1.8182373046875E-05	3945.79516403783	0.79986572265625	394
3939.99999005246	1.829833984375E-05	3955.79516401258	0.80078125	395
3949.99999002721	1.866455078125E-05	3965.79516398733	0.79925537109375	396
3959.99999000196	1.634521484375E-05	3975.79516396208	0.79864501953125	397
3969.99998997671	1.53961181640625E-05	3985.79516393683	0.79925537109375	398
3979.99998995147	1.6168212890625E-05	3995.79516391159	0.799560546875	399
3989.99998992622	1.60919189453125E-05	4005.79516388634	0.79864501953125	400
3999.99998990097	1.49871826171875E-05	4015.79516386109	0.7989501953125	401
4009.99998987572	1.73095703125E-05	4025.79516383584	0.7989501953125	402
4019.99998985048	1.5435791015625E-05	4035.7951638106	0.80047607421875	403
4029.99998982523	1.82708740234375E-05	4045.79516378535	0.79986572265625	404
4039.99998979998	1.75750732421875E-05	4055.7951637601	0.80047607421875	405
4049.99998977473	1.60003662109375E-05	4065.79516373485	0.79986572265625	406
4059.99998974949	1.48834228515625E-05	4075.79516370961	0.79986572265625	407
4069.99998972424	1.6497802734375E-05	4085.79516368436	0.799560546875	408
4079.99998969899	1.72515869140625E-05	4095.79516365911	0.799560546875	409
4089.99998967374	1.69677734375E-05	4105.79516363386	0.80047607421875	410
4099.9999896485	1.57684326171875E-05	4115.79516360862	0.80047607421875	411
4109.99998962325	1.52587890625E-05	4125.79516358337	0.79986572265625	412
4119.999989598	1.4947509765625E-05	4135.79516355812	0.79986572265625	413
4129.99998957275	1.56097412109375E-05	4145.79516353287	0.79925537109375	414
4139.9999895475	1.59515380859375E-05	4155.79516350763	0.7989501953125	415
4149.99998952226	1.55670166015625E-05	4165.79516348238	0.7989501953125	416
4159.99998949701	1.5185546875E-05	4175.79516345713	0.7989501953125	417
4169.99998947176	1.44683837890625E-05	4185.79516343188	0.79986572265625	418
4179.99998944651	1.41845703125E-05	4195.79516340664	0.79986572265625	419
4189.99998942127	1.61773681640625E-05	4205.79516338139	0.79986572265625	420
4199.99998939602	1.59393310546875E-05	4215.79516335614	0.79986572265625	421
4209.99998937077	1.46209716796875E-05	4225.79516333089	0.79986572265625	422
4219.99998934552	1.51153564453125E-05	4235.79516330565	0.8001708984375	423
4229.99998932028	1.4739990234375E-05	4245.7951632804	0.80047607421875	424
4239.99998929503	1.6534423828125E-05	4255.79516325515	0.8001708984375	425
4249.99998926978	1.54388427734375E-05	4265.7951632299	0.80047607421875	426
4259.99998924453	1.59210205078125E-05	4275.79516320466	0.79986572265625	427
4269.99998921929	1.5057373046875E-05	4285.79516317941	0.8001708984375	428
4279.99998919404	1.50238037109375E-05	4295.79516315416	0.79864501953125	429
4289.99998916879	1.6204833984375E-05	4305.79516312891	0.799560546875	430
4299.99998914354	1.351318359375E-05	4315.79516310366	0.799560546875	431
4309.9999891183	8.7890625E-06	4325.79516307842	0.80047607421875	432
4319.99998909305	9.4329833984375E-06	4335.79516305317	0.8001708984375	433
4329.9999890678	1.3116455078125E-05	4345.79516302792	0.79986572265625	434
4339.99998904255	1.309814453125E-05	4355.79516300267	0.799560546875	435
4349.99998901731	1.5435791015625E-05	4365.79516297743	0.799560546875	436
4359.99998899206	1.53289794921875E-05	4375.79516295218	0.8001708984375	437
4369.99998896681	1.62261962890625E-05	4385.79516292693	0.79986572265625	438
4379.99998894156	1.5032958984375E-05	4395.79516290168	0.8001708984375	439
4389.99998891632	1.429443359375E-05	4405.79516287644	0.80108642578125	440
4399.99998889107	1.53411865234375E-05	4415.79516285119	0.79986572265625	441
4409.99998886582	1.5911865234375E-05	4425.79516282594	0.80108642578125	442
4419.99998884057	1.49383544921875E-05	4435.79516280069	0.80047607421875	443
4429.99998881533	1.60369873046875E-05	4445.79516277545	0.79986572265625	444
4439.99998879008	1.5087890625E-05	4455.7951627502	0.799560546875	445
4449.99998876483	1.46820068359375E-05	4465.79516272495	0.79864501953125	446
4459.99998873958	1.42486572265625E-05	4475.7951626997	0.79864501953125	447
4469.99998871433	1.4666748046875E-05	4485.79516267446	0.799560546875	448
4479.99998868909	1.54296875E-05	4495.79516264921	0.79925537109375	449
4489.99998866384	1.5289306640625E-05	4505.79516262396	0.7989501953125	450
4499.99998863859	1.36962890625E-05	4515.79516259871	0.79925537109375	451
4509.99998861334	1.44561767578125E-05	4525.79516257347	0.799560546875	452
4519.9999885881	1.53564453125E-05	4535.79516254822	0.799560546875	453
4529.99998856285	1.4605712890625E-05	4545.79516252297	0.79986572265625	454
4539.9999885376	1.44256591796875E-05	4555.79516249772	0.79986572265625	455
4549.99998851235	1.505126953125E-05	4565.79516247248	0.799560546875	456
4559.99998848711	1.51214599609375E-05	4575.79516244723	0.799560546875	457
4569.99998846186	1.435546875E-05	4585.79516242198	0.79925537109375	458
4579.99998843661	1.52740478515625E-05	4595.79516239673	0.79986572265625	459
4589.99998841136	1.53961181640625E-05	4605.79516237149	0.80078125	460
4599.99998838612	1.4794921875E-05	4615.79516234624	0.79986572265625	461
4609.99998836087	1.4361572265625E-05	4625.79516232099	0.799560546875	462
4619.99998833562	1.412353515625E-05	4635.79516229574	0.799560546875	463
4629.99998831037	1.25335693359375E-05	4645.7951622705	0.8001708984375	464
4639.99998828513	1.48345947265625E-05	4655.79516224525	0.79925537109375	465
4649.99998825988	1.41265869140625E-05	4665.79516222	0.8001708984375	466
4659.99998823463	1.3787841796875E-05	4675.79516219475	0.79925537109375	467
4669.99998820938	1.67816162109375E-05	4685.7951621695	0.79986572265625	468
4679.99998818414	1.519775390625E-05	4695.79516214426	0.80047607421875	469
4689.99998815889	1.42120361328125E-05	4705.79516211901	0.799560546875	470
4699.99998813364	1.57379150390625E-05	4715.79516209376	0.80047607421875	471
4709.99998810839	1.33331298828125E-05	4725.79516206851	0.8001708984375	472
4719.99998808315	1.734619140625E-05	4735.79516204327	0.79986572265625	473
4729.9999880579	2.48443603515625E-05	4745.79516201802	0.799560546875	474
4739.99998803265	3.4564208984375E-05	4755.79516199277	0.79925537109375	475
4749.9999880074	4.24591064453125E-05	4765.79516196752	0.79925537109375	476
4759.99998798216	4.6783447265625E-05	4775.79516194228	0.79925537109375	477
4769.99998795691	4.2633056640625E-05	4785.79516191703	0.79925537109375	478
4779.99998793166	4.3408203125E-05	4795.79516189178	0.799560546875	479
4789.99998790641	4.6356201171875E-05	4805.79516186653	0.799560546875	480
4799.99998788117	4.18426513671875E-05	4815.79516184129	0.799560546875	481
4809.99998785592	3.4222412109375E-05	4825.79516181604	0.79925537109375	482
4819.99998783067	4.13726806640625E-05	4835.79516179079	0.799560546875	483
4829.99998780542	4.266357421875E-05	4845.79516176554	0.799560546875	484
4839.99998778017	3.5845947265625E-05	4855.7951617403	0.80078125	485
4849.99998775493	4.19677734375E-05	4865.79516171505	0.8001708984375	486
4859.99998772968	3.87542724609375E-05	4875.7951616898	0.799560546875	487
4869.99998770443	3.98345947265625E-05	4885.79516166455	0.799560546875	488
4879.99998767918	3.73077392578125E-05	4895.79516163931	0.8001708984375	489
4889.99998765394	3.6370849609375E-05	4905.79516161406	0.80047607421875	490
4899.99998762869	3.81744384765625E-05	4915.79516158881	0.8001708984375	491
4909.99998760344	3.6663818359375E-05	4925.79516156356	0.79925537109375	492
