Corrected time (s)	WE(1).Current (A)	WE(1).Potential (V)	Time (s)	Index
0	0.000484893798828125	0.7989501953125	15.7683909601886	1
9.99999997475243	0.000477142333984375	0.79925537109375	25.7683909349411	2
19.9999999495049	0.00047454833984375	0.799560546875	35.7683909096935	3
29.9999999242573	0.000458404541015625	0.79925537109375	45.7683908844459	4
39.9999998990097	0.000454376220703125	0.79986572265625	55.7683908591983	5
49.9999998737621	0.000434326171875	0.79925537109375	65.7683908339508	6
59.9999998485146	0.000431732177734375	0.79925537109375	75.7683908087032	7
69.999999823267	0.00043487548828125	0.7989501953125	85.7683907834556	8
79.9999997980194	0.000420135498046875	0.79986572265625	95.7683907582081	9
89.9999997727718	0.000387420654296875	0.7989501953125	105.76839073296	10
99.9999997475243	0.00034503173828125	0.79925537109375	115.768390707713	11
109.999999722277	0.000361785888671875	0.799560546875	125.768390682465	12
119.999999697029	0.00037078857421875	0.79986572265625	135.768390657218	13
129.999999671782	0.0003494873046875	0.79986572265625	145.76839063197	14
139.999999646534	0.00033087158203125	0.799560546875	155.768390606723	15
149.999999621286	0.00034625244140625	0.799560546875	165.768390581475	16
159.999999596039	0.000335296630859375	0.79986572265625	175.768390556227	17
169.999999570791	0.000314788818359375	0.79925537109375	185.76839053098	18
179.999999545544	0.00031365966796875	0.799560546875	195.768390505732	19
189.999999520296	0.00030938720703125	0.799560546875	205.768390480485	20
199.999999495049	0.000316986083984375	0.7989501953125	215.768390455237	21
209.999999469801	0.000300994873046875	0.79925537109375	225.76839042999	22
219.999999444553	0.0003145751953125	0.7989501953125	235.768390404742	23
229.999999419306	0.000294464111328125	0.79925537109375	245.768390379494	24
239.999999394058	0.00029620361328125	0.79925537109375	255.768390354247	25
249.999999368811	0.00027789306640625	0.799560546875	265.768390328999	26
259.999999343563	0.0002938232421875	0.79986572265625	275.768390303752	27
269.999999318316	0.00028472900390625	0.79925537109375	285.768390278504	28
279.999999293068	0.000259429931640625	0.799560546875	295.768390253257	29
289.99999926782	0.000279937744140625	0.79925537109375	305.768390228009	30
299.999999242573	0.0002650146484375	0.799560546875	315.768390202761	31
309.999999217325	0.0002867431640625	0.79925537109375	325.768390177514	32
319.999999192078	0.000237945556640625	0.8001708984375	335.768390152266	33
329.99999916683	0.000244598388671875	0.799560546875	345.768390127019	34
339.999999141583	0.00024200439453125	0.799560546875	355.768390101771	35
349.999999116335	0.000258087158203125	0.79986572265625	365.768390076524	36
359.999999091087	0.000251922607421875	0.799560546875	375.768390051276	37
369.99999906584	0.000252288818359375	0.799560546875	385.768390026028	38
379.999999040592	0.000238067626953125	0.79925537109375	395.768390000781	39
389.999999015345	0.000240753173828125	0.8001708984375	405.768389975533	40
399.999998990097	0.00023870849609375	0.79925537109375	415.768389950286	41
409.99999896485	0.000225067138671875	0.79986572265625	425.768389925038	42
419.999998939602	0.00023431396484375	0.79986572265625	435.768389899791	43
429.999998914354	0.000213104248046875	0.799560546875	445.768389874543	44
439.999998889107	0.000217529296875	0.79925537109375	455.768389849295	45
449.999998863859	0.0002154541015625	0.79986572265625	465.768389824048	46
459.999998838612	0.000207733154296875	0.8001708984375	475.7683897988	47
469.999998813364	0.00020513916015625	0.799560546875	485.768389773553	48
479.999998788117	0.000204925537109375	0.799560546875	495.768389748305	49
489.999998762869	0.00019366455078125	0.799560546875	505.768389723058	50
499.999998737621	0.000199310302734375	0.799560546875	515.76838969781	51
509.999998712374	0.000205291748046875	0.79925537109375	525.768389672562	52
519.999998687126	0.0002005615234375	0.79925537109375	535.768389647315	53
529.999998661879	0.000177642822265625	0.799560546875	545.768389622067	54
539.999998636631	0.000188079833984375	0.799560546875	555.76838959682	55
549.999998611383	0.00017584228515625	0.79986572265625	565.768389571572	56
559.999998586136	0.0001842041015625	0.799560546875	575.768389546325	57
569.999998560888	0.00017877197265625	0.79986572265625	585.768389521077	58
579.999998535641	0.000172637939453125	0.79986572265625	595.768389495829	59
589.999998510393	0.0001683349609375	0.799560546875	605.768389470582	60
599.999998485146	0.000170684814453125	0.8001708984375	615.768389445334	61
609.999998459898	0.000170501708984375	0.79925537109375	625.768389420087	62
619.99999843465	0.0001754150390625	0.7989501953125	635.768389394839	63
629.999998409403	0.000166229248046875	0.79986572265625	645.768389369592	64
639.999998384155	0.000160064697265625	0.79925537109375	655.768389344344	65
649.999998358908	0.00015966796875	0.79986572265625	665.768389319096	66
659.99999833366	0.000165618896484375	0.7989501953125	675.768389293849	67
669.999998308413	0.00015411376953125	0.79925537109375	685.768389268601	68
679.999998283165	0.000158721923828125	0.79986572265625	695.768389243354	69
689.999998257917	0.00014990234375	0.79986572265625	705.768389218106	70
699.99999823267	0.000152313232421875	0.799560546875	715.768389192859	71
709.999998207422	0.000155731201171875	0.799560546875	725.768389167611	72
719.999998182175	0.000150421142578125	0.79986572265625	735.768389142363	73
729.999998156927	0.000148651123046875	0.799560546875	745.768389117116	74
739.99999813168	0.000154693603515625	0.799560546875	755.768389091868	75
749.999998106432	0.000135162353515625	0.799560546875	765.768389066621	76
759.999998081184	0.00014141845703125	0.79986572265625	775.768389041373	77
769.999998055937	0.000132415771484375	0.79925537109375	785.768389016126	78
779.999998030689	0.00014947509765625	0.79986572265625	795.768388990878	79
789.999998005442	0.00013153076171875	0.799560546875	805.76838896563	80
799.999997980194	0.000140106201171875	0.79925537109375	815.768388940383	81
809.999997954947	0.000126190185546875	0.799560546875	825.768388915135	82
819.999997929699	0.00012933349609375	0.799560546875	835.768388889888	83
829.999997904451	0.000123016357421875	0.79986572265625	845.76838886464	84
839.999997879204	0.00012274169921875	0.79925537109375	855.768388839393	85
849.999997853956	0.000122589111328125	0.79986572265625	865.768388814145	86
859.999997828709	0.000124237060546875	0.8001708984375	875.768388788897	87
869.999997803461	0.000119598388671875	0.799560546875	885.76838876365	88
879.999997778214	0.000124267578125	0.7989501953125	895.768388738402	89
889.999997752966	0.00011431884765625	0.799560546875	905.768388713155	90
899.999997727718	0.00012030029296875	0.799560546875	915.768388687907	91
909.999997702471	0.000112945556640625	0.79986572265625	925.76838866266	92
919.999997677223	0.0001146240234375	0.79925537109375	935.768388637412	93
929.999997651976	0.00012176513671875	0.79925537109375	945.768388612164	94
939.999997626728	0.000117431640625	0.79925537109375	955.768388586917	95
949.999997601481	0.00011407470703125	0.799560546875	965.768388561669	96
959.999997576233	0.000108673095703125	0.79986572265625	975.768388536422	97
969.999997550985	0.000108428955078125	0.799560546875	985.768388511174	98
979.999997525738	0.000104248046875	0.79925537109375	995.768388485926	99
989.99999750049	0.000107879638671875	0.79986572265625	1005.76838846068	100
999.999997475243	0.000111175537109375	0.799560546875	1015.76838843543	101
1009.99999745	0.0001085205078125	0.79925537109375	1025.76838841018	102
1019.99999742475	0.0001033935546875	0.79986572265625	1035.76838838494	103
1029.9999973995	0.00011224365234375	0.79925537109375	1045.76838835969	104
1039.99999737425	0.000100860595703125	0.8001708984375	1055.76838833444	105
1049.999997349	9.94873046875E-05	0.7989501953125	1065.76838830919	106
1059.99999732376	0.000101715087890625	0.79986572265625	1075.76838828395	107
1069.99999729851	0.000105804443359375	0.79925537109375	1085.7683882587	108
1079.99999727326	0.000101226806640625	0.79925537109375	1095.76838823345	109
1089.99999724801	9.3902587890625E-05	0.799560546875	1105.7683882082	110
1099.99999722277	9.8297119140625E-05	0.799560546875	1115.76838818296	111
1109.99999719752	9.55810546875E-05	0.79925537109375	1125.76838815771	112
1119.99999717227	9.28955078125E-05	0.799560546875	1135.76838813246	113
1129.99999714702	9.4696044921875E-05	0.79925537109375	1145.76838810721	114
1139.99999712178	9.3597412109375E-05	0.79925537109375	1155.76838808197	115
1149.99999709653	9.4757080078125E-05	0.799560546875	1165.76838805672	116
1159.99999707128	9.5611572265625E-05	0.799560546875	1175.76838803147	117
1169.99999704603	8.538818359375E-05	0.79925537109375	1185.76838800622	118
1179.99999702079	9.173583984375E-05	0.8001708984375	1195.76838798098	119
1189.99999699554	8.9874267578125E-05	0.79986572265625	1205.76838795573	120
1199.99999697029	9.0667724609375E-05	0.79986572265625	1215.76838793048	121
1209.99999694504	9.3017578125E-05	0.79986572265625	1225.76838790523	122
1219.9999969198	8.8897705078125E-05	0.79986572265625	1235.76838787998	123
1229.99999689455	8.685302734375E-05	0.79986572265625	1245.76838785474	124
1239.9999968693	8.9111328125E-05	0.799560546875	1255.76838782949	125
1249.99999684405	8.453369140625E-05	0.79925537109375	1265.76838780424	126
1259.99999681881	8.3740234375E-05	0.799560546875	1275.76838777899	127
1269.99999679356	8.056640625E-05	0.799560546875	1285.76838775375	128
1279.99999676831	8.294677734375E-05	0.8001708984375	1295.7683877285	129
1289.99999674306	8.4259033203125E-05	0.79925537109375	1305.76838770325	130
1299.99999671782	7.8765869140625E-05	0.79986572265625	1315.768387678	131
1309.99999669257	7.9864501953125E-05	0.799560546875	1325.76838765276	132
1319.99999666732	8.2183837890625E-05	0.799560546875	1335.76838762751	133
1329.99999664207	8.367919921875E-05	0.799560546875	1345.76838760226	134
1339.99999661683	8.0352783203125E-05	0.799560546875	1355.76838757701	135
1349.99999659158	7.7789306640625E-05	0.79986572265625	1365.76838755177	136
1359.99999656633	7.6324462890625E-05	0.799560546875	1375.76838752652	137
1369.99999654108	7.8277587890625E-05	0.79925537109375	1385.76838750127	138
1379.99999651583	7.4554443359375E-05	0.79986572265625	1395.76838747602	139
1389.99999649059	8.087158203125E-05	0.8001708984375	1405.76838745078	140
1399.99999646534	7.672119140625E-05	0.799560546875	1415.76838742553	141
1409.99999644009	7.647705078125E-05	0.799560546875	1425.76838740028	142
1419.99999641484	7.8643798828125E-05	0.79986572265625	1435.76838737503	143
1429.9999963896	7.4493408203125E-05	0.79925537109375	1445.76838734979	144
1439.99999636435	7.5164794921875E-05	0.8001708984375	1455.76838732454	145
1449.9999963391	7.3974609375E-05	0.799560546875	1465.76838729929	146
1459.99999631385	7.3577880859375E-05	0.79986572265625	1475.76838727404	147
1469.99999628861	6.77490234375E-05	0.799560546875	1485.7683872488	148
1479.99999626336	7.672119140625E-05	0.799560546875	1495.76838722355	149
1489.99999623811	7.2601318359375E-05	0.80047607421875	1505.7683871983	150
1499.99999621286	7.1624755859375E-05	0.799560546875	1515.76838717305	151
1509.99999618762	7.2998046875E-05	0.79925537109375	1525.76838714781	152
1519.99999616237	7.26318359375E-05	0.799560546875	1535.76838712256	153
1529.99999613712	7.2784423828125E-05	0.79925537109375	1545.76838709731	154
1539.99999611187	7.025146484375E-05	0.79986572265625	1555.76838707206	155
1549.99999608663	7.3944091796875E-05	0.79925537109375	1565.76838704682	156
1559.99999606138	7.3211669921875E-05	0.7989501953125	1575.76838702157	157
1569.99999603613	7.0404052734375E-05	0.799560546875	1585.76838699632	158
1579.99999601088	6.9671630859375E-05	0.799560546875	1595.76838697107	159
1589.99999598564	6.7474365234375E-05	0.79986572265625	1605.76838694582	160
1599.99999596039	7.0404052734375E-05	0.799560546875	1615.76838692058	161
1609.99999593514	6.683349609375E-05	0.7989501953125	1625.76838689533	162
1619.99999590989	6.6680908203125E-05	0.79986572265625	1635.76838687008	163
1629.99999588465	6.4056396484375E-05	0.79925537109375	1645.76838684483	164
1639.9999958594	6.7474365234375E-05	0.79986572265625	1655.76838681959	165
1649.99999583415	6.927490234375E-05	0.79986572265625	1665.76838679434	166
1659.9999958089	6.787109375E-05	0.79925537109375	1675.76838676909	167
1669.99999578366	6.82373046875E-05	0.799560546875	1685.76838674384	168
1679.99999575841	6.6070556640625E-05	0.79986572265625	1695.7683867186	169
1689.99999573316	6.62841796875E-05	0.79925537109375	1705.76838669335	170
1699.99999570791	6.4239501953125E-05	0.79986572265625	1715.7683866681	171
1709.99999568267	6.4849853515625E-05	0.79986572265625	1725.76838664285	172
1719.99999565742	6.6680908203125E-05	0.799560546875	1735.76838661761	173
1729.99999563217	6.3873291015625E-05	0.799560546875	1745.76838659236	174
1739.99999560692	6.2286376953125E-05	0.799560546875	1755.76838656711	175
1749.99999558167	6.3446044921875E-05	0.799560546875	1765.76838654186	176
1759.99999555643	6.3262939453125E-05	0.799560546875	1775.76838651662	177
1769.99999553118	6.4727783203125E-05	0.7989501953125	1785.76838649137	178
1779.99999550593	6.1981201171875E-05	0.79986572265625	1795.76838646612	179
1789.99999548068	6.2896728515625E-05	0.79925537109375	1805.76838644087	180
1799.99999545544	6.23779296875E-05	0.799560546875	1815.76838641563	181
1809.99999543019	6.1126708984375E-05	0.799560546875	1825.76838639038	182
1819.99999540494	6.060791015625E-05	0.79986572265625	1835.76838636513	183
1829.99999537969	6.292724609375E-05	0.79986572265625	1845.76838633988	184
1839.99999535445	6.109619140625E-05	0.799560546875	1855.76838631464	185
1849.9999953292	5.94482421875E-05	0.799560546875	1865.76838628939	186
1859.99999530395	6.1279296875E-05	0.79925537109375	1875.76838626414	187
1869.9999952787	5.8837890625E-05	0.799560546875	1885.76838623889	188
1879.99999525346	5.82275390625E-05	0.799560546875	1895.76838621365	189
1889.99999522821	5.853271484375E-05	0.80047607421875	1905.7683861884	190
1899.99999520296	5.7830810546875E-05	0.79925537109375	1915.76838616315	191
1909.99999517771	6.1187744140625E-05	0.799560546875	1925.7683861379	192
1919.99999515247	5.6488037109375E-05	0.799560546875	1935.76838611265	193
1929.99999512722	5.9356689453125E-05	0.799560546875	1945.76838608741	194
1939.99999510197	6.0302734375E-05	0.7989501953125	1955.76838606216	195
1949.99999507672	5.7281494140625E-05	0.79925537109375	1965.76838603691	196
1959.99999505148	5.7159423828125E-05	0.79925537109375	1975.76838601166	197
1969.99999502623	5.9478759765625E-05	0.79986572265625	1985.76838598642	198
1979.99999500098	5.712890625E-05	0.799560546875	1995.76838596117	199
1989.99999497573	5.6060791015625E-05	0.79925537109375	2005.76838593592	200
1999.99999495049	5.584716796875E-05	0.799560546875	2015.76838591067	201
2009.99999492524	5.810546875E-05	0.79925537109375	2025.76838588543	202
2019.99999489999	5.6427001953125E-05	0.79925537109375	2035.76838586018	203
2029.99999487474	5.718994140625E-05	0.8001708984375	2045.76838583493	204
2039.9999948495	5.5419921875E-05	0.799560546875	2055.76838580968	205
2049.99999482425	5.523681640625E-05	0.79925537109375	2065.76838578444	206
2059.999994799	5.609130859375E-05	0.79925537109375	2075.76838575919	207
2069.99999477375	5.57861328125E-05	0.799560546875	2085.76838573394	208
2079.9999947485	5.3497314453125E-05	0.799560546875	2095.76838570869	209
2089.99999472326	5.462646484375E-05	0.799560546875	2105.76838568345	210
2099.99999469801	5.2398681640625E-05	0.799560546875	2115.7683856582	211
2109.99999467276	5.4290771484375E-05	0.799560546875	2125.76838563295	212
2119.99999464751	5.11474609375E-05	0.799560546875	2135.7683856077	213
2129.99999462227	5.2978515625E-05	0.79986572265625	2145.76838558246	214
2139.99999459702	5.1116943359375E-05	0.799560546875	2155.76838555721	215
2149.99999457177	5.267333984375E-05	0.79986572265625	2165.76838553196	216
2159.99999454652	5.108642578125E-05	0.799560546875	2175.76838550671	217
2169.99999452128	5.3009033203125E-05	0.799560546875	2185.76838548147	218
2179.99999449603	5.04150390625E-05	0.79986572265625	2195.76838545622	219
2189.99999447078	5.242919921875E-05	0.799560546875	2205.76838543097	220
2199.99999444553	5.1605224609375E-05	0.799560546875	2215.76838540572	221
2209.99999442029	5.169677734375E-05	0.79986572265625	2225.76838538048	222
2219.99999439504	4.931640625E-05	0.79986572265625	2235.76838535523	223
2229.99999436979	5.291748046875E-05	0.799560546875	2245.76838532998	224
2239.99999434454	4.99267578125E-05	0.799560546875	2255.76838530473	225
2249.9999943193	5.145263671875E-05	0.799560546875	2265.76838527948	226
2259.99999429405	5.242919921875E-05	0.79986572265625	2275.76838525424	227
2269.9999942688	5.145263671875E-05	0.799560546875	2285.76838522899	228
2279.99999424355	4.99267578125E-05	0.79986572265625	2295.76838520374	229
2289.99999421831	4.9713134765625E-05	0.799560546875	2305.76838517849	230
2299.99999419306	4.8797607421875E-05	0.799560546875	2315.76838515325	231
2309.99999416781	4.67681884765625E-05	0.79986572265625	2325.768385128	232
2319.99999414256	4.67620849609375E-05	0.79986572265625	2335.76838510275	233
2329.99999411732	4.7607421875E-05	0.79986572265625	2345.7683850775	234
2339.99999409207	4.561767578125E-05	0.79986572265625	2355.76838505226	235
2349.99999406682	4.58587646484375E-05	0.8001708984375	2365.76838502701	236
2359.99999404157	4.5587158203125E-05	0.799560546875	2375.76838500176	237
2369.99999401633	4.48486328125E-05	0.79925537109375	2385.76838497651	238
2379.99999399108	4.49798583984375E-05	0.8001708984375	2395.76838495127	239
2389.99999396583	4.53216552734375E-05	0.8001708984375	2405.76838492602	240
2399.99999394058	4.547119140625E-05	0.79986572265625	2415.76838490077	241
2409.99999391533	4.48944091796875E-05	0.79986572265625	2425.76838487552	242
2419.99999389009	4.55078125E-05	0.79986572265625	2435.76838485028	243
2429.99999386484	4.3304443359375E-05	0.799560546875	2445.76838482503	244
2439.99999383959	4.39727783203125E-05	0.80078125	2455.76838479978	245
2449.99999381434	4.43878173828125E-05	0.799560546875	2465.76838477453	246
2459.9999937891	4.3121337890625E-05	0.799560546875	2475.76838474929	247
2469.99999376385	4.193115234375E-05	0.799560546875	2485.76838472404	248
2479.9999937386	4.33807373046875E-05	0.79925537109375	2495.76838469879	249
2489.99999371335	4.38995361328125E-05	0.799560546875	2505.76838467354	250
2499.99999368811	4.20257568359375E-05	0.7989501953125	2515.7683846483	251
2509.99999366286	4.35638427734375E-05	0.7989501953125	2525.76838462305	252
2519.99999363761	4.41070556640625E-05	0.79986572265625	2535.7683845978	253
2529.99999361236	4.1754150390625E-05	0.799560546875	2545.76838457255	254
2539.99999358712	4.24957275390625E-05	0.8001708984375	2555.76838454731	255
2549.99999356187	4.23431396484375E-05	0.799560546875	2565.76838452206	256
2559.99999353662	4.18914794921875E-05	0.79925537109375	2575.76838449681	257
2569.99999351137	4.19921875E-05	0.79986572265625	2585.76838447156	258
2579.99999348613	4.114990234375E-05	0.799560546875	2595.76838444631	259
2589.99999346088	4.1748046875E-05	0.799560546875	2605.76838442107	260
2599.99999343563	4.03839111328125E-05	0.79986572265625	2615.76838439582	261
2609.99999341038	3.93829345703125E-05	0.799560546875	2625.76838437057	262
2619.99999338514	4.03594970703125E-05	0.79925537109375	2635.76838434532	263
2629.99999335989	4.00909423828125E-05	0.79986572265625	2645.76838432008	264
2639.99999333464	3.84613037109375E-05	0.79925537109375	2655.76838429483	265
2649.99999330939	3.974609375E-05	0.79986572265625	2665.76838426958	266
2659.99999328415	4.02557373046875E-05	0.799560546875	2675.76838424433	267
2669.9999932589	3.7445068359375E-05	0.799560546875	2685.76838421909	268
2679.99999323365	3.93035888671875E-05	0.79925537109375	2695.76838419384	269
2689.9999932084	3.9447021484375E-05	0.799560546875	2705.76838416859	270
2699.99999318316	3.85528564453125E-05	0.79986572265625	2715.76838414334	271
2709.99999315791	3.887939453125E-05	0.79986572265625	2725.7683841181	272
2719.99999313266	3.946533203125E-05	0.799560546875	2735.76838409285	273
2729.99999310741	3.824462890625E-05	0.799560546875	2745.7683840676	274
2739.99999308217	3.70635986328125E-05	0.79925537109375	2755.76838404235	275
2749.99999305692	3.78021240234375E-05	0.79925537109375	2765.76838401711	276
2759.99999303167	3.704833984375E-05	0.799560546875	2775.76838399186	277
2769.99999300642	3.8348388671875E-05	0.799560546875	2785.76838396661	278
2779.99999298117	3.64410400390625E-05	0.799560546875	2795.76838394136	279
2789.99999295593	3.72100830078125E-05	0.8001708984375	2805.76838391612	280
2799.99999293068	3.71368408203125E-05	0.79986572265625	2815.76838389087	281
2809.99999290543	3.7481689453125E-05	0.799560546875	2825.76838386562	282
2819.99999288018	3.74053955078125E-05	0.799560546875	2835.76838384037	283
2829.99999285494	3.64898681640625E-05	0.799560546875	2845.76838381513	284
2839.99999282969	3.57208251953125E-05	0.79986572265625	2855.76838378988	285
2849.99999280444	3.65875244140625E-05	0.79925537109375	2865.76838376463	286
2859.99999277919	3.6053466796875E-05	0.79925537109375	2875.76838373938	287
2869.99999275395	3.6846923828125E-05	0.79925537109375	2885.76838371414	288
2879.9999927287	3.53546142578125E-05	0.799560546875	2895.76838368889	289
2889.99999270345	3.50189208984375E-05	0.799560546875	2905.76838366364	290
2899.9999926782	3.563232421875E-05	0.79925537109375	2915.76838363839	291
2909.99999265296	3.424072265625E-05	0.799560546875	2925.76838361315	292
2919.99999262771	3.4124755859375E-05	0.79925537109375	2935.7683835879	293
2929.99999260246	3.5107421875E-05	0.79986572265625	2945.76838356265	294
2939.99999257721	3.5736083984375E-05	0.8001708984375	2955.7683835374	295
2949.99999255197	3.4808349609375E-05	0.79986572265625	2965.76838351215	296
2959.99999252672	3.47564697265625E-05	0.799560546875	2975.76838348691	297
2969.99999250147	3.4344482421875E-05	0.799560546875	2985.76838346166	298
2979.99999247622	3.46649169921875E-05	0.799560546875	2995.76838343641	299
2989.99999245098	3.38531494140625E-05	0.79925537109375	3005.76838341116	300
2999.99999242573	3.388671875E-05	0.79986572265625	3015.76838338592	301
3009.99999240048	3.22113037109375E-05	0.799560546875	3025.76838336067	302
3019.99999237523	3.41644287109375E-05	0.799560546875	3035.76838333542	303
3029.99999234999	3.39569091796875E-05	0.79986572265625	3045.76838331017	304
3039.99999232474	3.24432373046875E-05	0.79986572265625	3055.76838328493	305
3049.99999229949	3.33984375E-05	0.79986572265625	3065.76838325968	306
3059.99999227424	3.33892822265625E-05	0.79986572265625	3075.76838323443	307
3069.999992249	3.34503173828125E-05	0.799560546875	3085.76838320918	308
3079.99999222375	3.22235107421875E-05	0.79925537109375	3095.76838318394	309
3089.9999921985	3.29681396484375E-05	0.799560546875	3105.76838315869	310
3099.99999217325	3.20068359375E-05	0.79986572265625	3115.76838313344	311
3109.999992148	3.24676513671875E-05	0.8001708984375	3125.76838310819	312
3119.99999212276	3.2098388671875E-05	0.79864501953125	3135.76838308295	313
3129.99999209751	3.282470703125E-05	0.79925537109375	3145.7683830577	314
3139.99999207226	3.22357177734375E-05	0.8001708984375	3155.76838303245	315
3149.99999204701	3.21990966796875E-05	0.79925537109375	3165.7683830072	316
3159.99999202177	3.211669921875E-05	0.79925537109375	3175.76838298196	317
3169.99999199652	3.13446044921875E-05	0.799560546875	3185.76838295671	318
3179.99999197127	2.97271728515625E-05	0.799560546875	3195.76838293146	319
3189.99999194602	3.03985595703125E-05	0.79986572265625	3205.76838290621	320
3199.99999192078	3.12225341796875E-05	0.79986572265625	3215.76838288097	321
3209.99999189553	3.072509765625E-05	0.799560546875	3225.76838285572	322
3219.99999187028	3.060302734375E-05	0.8001708984375	3235.76838283047	323
3229.99999184503	3.04443359375E-05	0.799560546875	3245.76838280522	324
3239.99999181979	2.94525146484375E-05	0.80047607421875	3255.76838277998	325
3249.99999179454	2.9937744140625E-05	0.799560546875	3265.76838275473	326
3259.99999176929	2.92938232421875E-05	0.799560546875	3275.76838272948	327
3269.99999174404	2.99407958984375E-05	0.79925537109375	3285.76838270423	328
3279.9999917188	3.05389404296875E-05	0.799560546875	3295.76838267898	329
3289.99999169355	2.94097900390625E-05	0.79925537109375	3305.76838265374	330
3299.9999916683	2.99285888671875E-05	0.799560546875	3315.76838262849	331
3309.99999164305	2.8955078125E-05	0.799560546875	3325.76838260324	332
3319.99999161781	2.82196044921875E-05	0.799560546875	3335.76838257799	333
3329.99999159256	2.95928955078125E-05	0.79986572265625	3345.76838255275	334
3339.99999156731	2.8106689453125E-05	0.799560546875	3355.7683825275	335
3349.99999154206	3.0126953125E-05	0.799560546875	3365.76838250225	336
3359.99999151682	2.83111572265625E-05	0.799560546875	3375.768382477	337
3369.99999149157	2.9193115234375E-05	0.799560546875	3385.76838245176	338
3379.99999146632	2.85064697265625E-05	0.79986572265625	3395.76838242651	339
3389.99999144107	2.72003173828125E-05	0.799560546875	3405.76838240126	340
3399.99999141583	2.8485107421875E-05	0.799560546875	3415.76838237601	341
3409.99999139058	2.84332275390625E-05	0.799560546875	3425.76838235077	342
3419.99999136533	2.88421630859375E-05	0.79986572265625	3435.76838232552	343
3429.99999134008	2.906494140625E-05	0.79986572265625	3445.76838230027	344
3439.99999131483	2.8216552734375E-05	0.799560546875	3455.76838227502	345
3449.99999128959	2.71728515625E-05	0.8001708984375	3465.76838224978	346
3459.99999126434	2.74261474609375E-05	0.799560546875	3475.76838222453	347
3469.99999123909	2.8656005859375E-05	0.79986572265625	3485.76838219928	348
3479.99999121384	2.83294677734375E-05	0.799560546875	3495.76838217403	349
3489.9999911886	2.71240234375E-05	0.7989501953125	3505.76838214879	350
3499.99999116335	2.8826904296875E-05	0.79925537109375	3515.76838212354	351
3509.9999911381	2.65777587890625E-05	0.79925537109375	3525.76838209829	352
3519.99999111285	2.65289306640625E-05	0.79986572265625	3535.76838207304	353
3529.99999108761	2.67608642578125E-05	0.7989501953125	3545.7683820478	354
3539.99999106236	2.5970458984375E-05	0.799560546875	3555.76838202255	355
3549.99999103711	2.65533447265625E-05	0.799560546875	3565.7683819973	356
3559.99999101186	2.66937255859375E-05	0.79925537109375	3575.76838197205	357
3569.99999098662	2.56500244140625E-05	0.799560546875	3585.76838194681	358
3579.99999096137	2.50518798828125E-05	0.799560546875	3595.76838192156	359
3589.99999093612	2.67974853515625E-05	0.79925537109375	3605.76838189631	360
3599.99999091087	2.69317626953125E-05	0.79925537109375	3615.76838187106	361
3609.99999088563	2.65045166015625E-05	0.799560546875	3625.76838184581	362
3619.99999086038	2.6654052734375E-05	0.799560546875	3635.76838182057	363
3629.99999083513	2.525634765625E-05	0.79925537109375	3645.76838179532	364
3639.99999080988	2.703857421875E-05	0.799560546875	3655.76838177007	365
3649.99999078464	2.55126953125E-05	0.799560546875	3665.76838174482	366
3659.99999075939	2.50335693359375E-05	0.79986572265625	3675.76838171958	367
3669.99999073414	2.65655517578125E-05	0.7989501953125	3685.76838169433	368
3679.99999070889	2.5421142578125E-05	0.79986572265625	3695.76838166908	369
3689.99999068365	2.62542724609375E-05	0.79925537109375	3705.76838164383	370
3699.9999906584	2.51129150390625E-05	0.79986572265625	3715.76838161859	371
3709.99999063315	2.567138671875E-05	0.79986572265625	3725.76838159334	372
3719.9999906079	2.601318359375E-05	0.799560546875	3735.76838156809	373
3729.99999058266	2.58453369140625E-05	0.79986572265625	3745.76838154284	374
3739.99999055741	2.48504638671875E-05	0.79986572265625	3755.7683815176	375
3749.99999053216	2.48779296875E-05	0.79925537109375	3765.76838149235	376
3759.99999050691	2.51556396484375E-05	0.79925537109375	3775.7683814671	377
3769.99999048167	2.40203857421875E-05	0.79986572265625	3785.76838144185	378
3779.99999045642	2.44720458984375E-05	0.79986572265625	3795.76838141661	379
3789.99999043117	2.36053466796875E-05	0.79986572265625	3805.76838139136	380
3799.99999040592	2.3583984375E-05	0.799560546875	3815.76838136611	381
3809.99999038067	2.3712158203125E-05	0.79925537109375	3825.76838134086	382
3819.99999035543	2.41180419921875E-05	0.799560546875	3835.76838131562	383
3829.99999033018	2.430419921875E-05	0.799560546875	3845.76838129037	384
3839.99999030493	2.413330078125E-05	0.79925537109375	3855.76838126512	385
3849.99999027968	2.3876953125E-05	0.79925537109375	3865.76838123987	386
3859.99999025444	2.415771484375E-05	0.79925537109375	3875.76838121463	387
3869.99999022919	2.4468994140625E-05	0.799560546875	3885.76838118938	388
3879.99999020394	2.43408203125E-05	0.79986572265625	3895.76838116413	389
3889.99999017869	2.3992919921875E-05	0.79986572265625	3905.76838113888	390
3899.99999015345	2.38861083984375E-05	0.79986572265625	3915.76838111364	391
3909.9999901282	2.2802734375E-05	0.79986572265625	3925.76838108839	392
3919.99999010295	2.2747802734375E-05	0.79925537109375	3935.76838106314	393
3929.9999900777	2.38922119140625E-05	0.7989501953125	3945.76838103789	394
3939.99999005246	2.2259521484375E-05	0.7989501953125	3955.76838101265	395
3949.99999002721	2.2802734375E-05	0.799560546875	3965.7683809874	396
3959.99999000196	2.25311279296875E-05	0.79986572265625	3975.76838096215	397
3969.99998997671	2.09747314453125E-05	0.79986572265625	3985.7683809369	398
3979.99998995147	2.3602294921875E-05	0.799560546875	3995.76838091165	399
3989.99998992622	2.2589111328125E-05	0.799560546875	4005.76838088641	400
3999.99998990097	2.25433349609375E-05	0.79986572265625	4015.76838086116	401
4009.99998987572	2.21649169921875E-05	0.79986572265625	4025.76838083591	402
4019.99998985048	2.2637939453125E-05	0.79986572265625	4035.76838081066	403
4029.99998982523	2.275390625E-05	0.79986572265625	4045.76838078542	404
4039.99998979998	2.3193359375E-05	0.79986572265625	4055.76838076017	405
4049.99998977473	2.21649169921875E-05	0.799560546875	4065.76838073492	406
4059.99998974949	2.22686767578125E-05	0.79986572265625	4075.76838070967	407
4069.99998972424	2.2052001953125E-05	0.79925537109375	4085.76838068443	408
4079.99998969899	2.2314453125E-05	0.79986572265625	4095.76838065918	409
4089.99998967374	2.242431640625E-05	0.8001708984375	4105.76838063393	410
4099.9999896485	2.183837890625E-05	0.8001708984375	4115.76838060868	411
4109.99998962325	2.1502685546875E-05	0.80047607421875	4125.76838058344	412
4119.999989598	2.12860107421875E-05	0.79986572265625	4135.76838055819	413
4129.99998957275	2.12677001953125E-05	0.799560546875	4145.76838053294	414
4139.9999895475	2.0892333984375E-05	0.79925537109375	4155.76838050769	415
4149.99998952226	2.11578369140625E-05	0.79925537109375	4165.76838048245	416
4159.99998949701	2.17742919921875E-05	0.79986572265625	4175.7683804572	417
4169.99998947176	2.1075439453125E-05	0.79925537109375	4185.76838043195	418
4179.99998944651	2.1099853515625E-05	0.79986572265625	4195.7683804067	419
4189.99998942127	2.1026611328125E-05	0.799560546875	4205.76838038146	420
4199.99998939602	2.16094970703125E-05	0.799560546875	4215.76838035621	421
4209.99998937077	2.05902099609375E-05	0.79925537109375	4225.76838033096	422
4219.99998934552	2.0648193359375E-05	0.79986572265625	4235.76838030571	423
4229.99998932028	2.17437744140625E-05	0.79925537109375	4245.76838028047	424
4239.99998929503	2.12677001953125E-05	0.799560546875	4255.76838025522	425
4249.99998926978	2.1466064453125E-05	0.79986572265625	4265.76838022997	426
4259.99998924453	1.99066162109375E-05	0.799560546875	4275.76838020472	427
4269.99998921929	2.1234130859375E-05	0.79925537109375	4285.76838017947	428
4279.99998919404	2.02178955078125E-05	0.799560546875	4295.76838015423	429
4289.99998916879	2.056884765625E-05	0.79986572265625	4305.76838012898	430
4299.99998914354	2.0257568359375E-05	0.799560546875	4315.76838010373	431
4309.9999891183	2.0404052734375E-05	0.79986572265625	4325.76838007848	432
4319.99998909305	2.07855224609375E-05	0.799560546875	4335.76838005324	433
4329.9999890678	2.0391845703125E-05	0.79986572265625	4345.76838002799	434
4339.99998904255	2.00775146484375E-05	0.79925537109375	4355.76838000274	435
4349.99998901731	2.052001953125E-05	0.79925537109375	4365.76837997749	436
4359.99998899206	2.05322265625E-05	0.79986572265625	4375.76837995225	437
4369.99998896681	1.9464111328125E-05	0.79986572265625	4385.768379927	438
4379.99998894156	1.96014404296875E-05	0.79986572265625	4395.76837990175	439
4389.99998891632	1.93756103515625E-05	0.79986572265625	4405.7683798765	440
4399.99998889107	2.03887939453125E-05	0.799560546875	4415.76837985126	441
4409.99998886582	2.02362060546875E-05	0.79925537109375	4425.76837982601	442
4419.99998884057	1.96746826171875E-05	0.799560546875	4435.76837980076	443
4429.99998881533	1.91864013671875E-05	0.799560546875	4445.76837977551	444
4439.99998879008	1.96563720703125E-05	0.80047607421875	4455.76837975027	445
4449.99998876483	2.0245361328125E-05	0.799560546875	4465.76837972502	446
4459.99998873958	2.008056640625E-05	0.799560546875	4475.76837969977	447
4469.99998871433	1.9183349609375E-05	0.799560546875	4485.76837967452	448
4479.99998868909	1.96319580078125E-05	0.79986572265625	4495.76837964928	449
4489.99998866384	2.01751708984375E-05	0.799560546875	4505.76837962403	450
4499.99998863859	1.895751953125E-05	0.79925537109375	4515.76837959878	451
4509.99998861334	1.876220703125E-05	0.79925537109375	4525.76837957353	452
4519.9999885881	1.84417724609375E-05	0.79986572265625	4535.76837954829	453
4529.99998856285	1.9677734375E-05	0.8001708984375	4545.76837952304	454
4539.9999885376	1.9189453125E-05	0.79986572265625	4555.76837949779	455
4549.99998851235	1.91070556640625E-05	0.79925537109375	4565.76837947254	456
4559.99998848711	1.8450927734375E-05	0.79986572265625	4575.7683794473	457
4569.99998846186	1.84295654296875E-05	0.799560546875	4585.76837942205	458
4579.99998843661	1.8255615234375E-05	0.799560546875	4595.7683793968	459
4589.99998841136	1.871337890625E-05	0.79925537109375	4605.76837937155	460
4599.99998838612	1.865234375E-05	0.799560546875	4615.7683793463	461
4609.99998836087	1.92047119140625E-05	0.79986572265625	4625.76837932106	462
4619.99998833562	1.8017578125E-05	0.8001708984375	4635.76837929581	463
4629.99998831037	1.796875E-05	0.79986572265625	4645.76837927056	464
4639.99998828513	1.81915283203125E-05	0.799560546875	4655.76837924531	465
4649.99998825988	1.83837890625E-05	0.79986572265625	4665.76837922007	466
4659.99998823463	1.7205810546875E-05	0.799560546875	4675.76837919482	467
4669.99998820938	1.8572998046875E-05	0.80047607421875	4685.76837916957	468
4679.99998818414	1.78466796875E-05	0.7989501953125	4695.76837914432	469
4689.99998815889	1.87225341796875E-05	0.799560546875	4705.76837911908	470
4699.99998813364	1.7083740234375E-05	0.799560546875	4715.76837909383	471
4709.99998810839	1.71356201171875E-05	0.79925537109375	4725.76837906858	472
4719.99998808315	1.806640625E-05	0.79986572265625	4735.76837904333	473
4729.9999880579	1.7730712890625E-05	0.79986572265625	4745.76837901809	474
4739.99998803265	1.7559814453125E-05	0.799560546875	4755.76837899284	475
4749.9999880074	1.77490234375E-05	0.799560546875	4765.76837896759	476
4759.99998798216	1.74957275390625E-05	0.799560546875	4775.76837894234	477
4769.99998795691	1.7498779296875E-05	0.799560546875	4785.7683789171	478
4779.99998793166	1.7095947265625E-05	0.7989501953125	4795.76837889185	479
4789.99998790641	1.61651611328125E-05	0.799560546875	4805.7683788666	480
4799.99998788117	1.76849365234375E-05	0.79986572265625	4815.76837884135	481
4809.99998785592	1.7218017578125E-05	0.799560546875	4825.76837881611	482
4819.99998783067	1.75140380859375E-05	0.79986572265625	4835.76837879086	483
4829.99998780542	1.728515625E-05	0.79986572265625	4845.76837876561	484
4839.99998778017	1.728515625E-05	0.8001708984375	4855.76837874036	485
4849.99998775493	1.75567626953125E-05	0.7989501953125	4865.76837871512	486
4859.99998772968	1.67327880859375E-05	0.8001708984375	4875.76837868987	487
4869.99998770443	1.6278076171875E-05	0.799560546875	4885.76837866462	488
4879.99998767918	1.71844482421875E-05	0.79986572265625	4895.76837863937	489
4889.99998765394	1.7572021484375E-05	0.79986572265625	4905.76837861413	490
4899.99998762869	1.72393798828125E-05	0.7989501953125	4915.76837858888	491
4909.99998760344	1.64398193359375E-05	0.799560546875	4925.76837856363	492
4919.99998757819	1.69342041015625E-05	0.79925537109375	4935.76837853838	493
4929.99998755295	1.7242431640625E-05	0.79986572265625	4945.76837851313	494
4939.9999875277	1.69525146484375E-05	0.799560546875	4955.76837848789	495
4949.99998750245	1.607666015625E-05	0.8001708984375	4965.76837846264	496
4959.9999874772	1.612548828125E-05	0.799560546875	4975.76837843739	497
4969.99998745196	1.6796875E-05	0.79986572265625	4985.76837841214	498
4979.99998742671	1.64459228515625E-05	0.7989501953125	4995.7683783869	499
4989.99998740146	1.6510009765625E-05	0.79986572265625	5005.76837836165	500
4999.99998737621	1.668701171875E-05	0.799560546875	5015.7683783364	501
5009.99998735097	1.60980224609375E-05	0.8001708984375	5025.76837831115	502
5019.99998732572	1.56402587890625E-05	0.79986572265625	5035.76837828591	503
5029.99998730047	1.6729736328125E-05	0.79986572265625	5045.76837826066	504
5039.99998727522	1.61468505859375E-05	0.79925537109375	5055.76837823541	505
5049.99998724998	1.59881591796875E-05	0.799560546875	5065.76837821016	506
5059.99998722473	1.6082763671875E-05	0.799560546875	5075.76837818492	507
5069.99998719948	1.62017822265625E-05	0.799560546875	5085.76837815967	508
5079.99998717423	1.59759521484375E-05	0.799560546875	5095.76837813442	509
5089.99998714899	1.49139404296875E-05	0.79925537109375	5105.76837810917	510
5099.99998712374	1.5447998046875E-05	0.799560546875	5115.76837808393	511
5109.99998709849	1.55242919921875E-05	0.79986572265625	5125.76837805868	512
5119.99998707324	1.5399169921875E-05	0.8001708984375	5135.76837803343	513
5129.999987048	1.5570068359375E-05	0.79986572265625	5145.76837800818	514
5139.99998702275	1.51519775390625E-05	0.799560546875	5155.76837798294	515
5149.9999869975	1.57501220703125E-05	0.79925537109375	5165.76837795769	516
5159.99998697225	1.5533447265625E-05	0.79986572265625	5175.76837793244	517
5169.999986947	1.52374267578125E-05	0.79986572265625	5185.76837790719	518
5179.99998692176	1.4984130859375E-05	0.79986572265625	5195.76837788195	519
5189.99998689651	1.52740478515625E-05	0.79925537109375	5205.7683778567	520
5199.99998687126	1.546630859375E-05	0.8001708984375	5215.76837783145	521
5209.99998684601	1.49871826171875E-05	0.8001708984375	5225.7683778062	522
5219.99998682077	1.484375E-05	0.79986572265625	5235.76837778096	523
5229.99998679552	1.533203125E-05	0.799560546875	5245.76837775571	524
5239.99998677027	1.53656005859375E-05	0.799560546875	5255.76837773046	525
5249.99998674502	1.51336669921875E-05	0.799560546875	5265.76837770521	526
5259.99998671978	1.50482177734375E-05	0.7989501953125	5275.76837767996	527
5269.99998669453	1.5374755859375E-05	0.799560546875	5285.76837765472	528
5279.99998666928	1.53350830078125E-05	0.799560546875	5295.76837762947	529
5289.99998664403	1.4581298828125E-05	0.799560546875	5305.76837760422	530
5299.99998661879	1.50604248046875E-05	0.799560546875	5315.76837757897	531
5309.99998659354	1.4703369140625E-05	0.79925537109375	5325.76837755373	532
5319.99998656829	1.51611328125E-05	0.799560546875	5335.76837752848	533
5329.99998654304	1.42242431640625E-05	0.79925537109375	5345.76837750323	534
5339.9999865178	1.483154296875E-05	0.799560546875	5355.76837747798	535
5349.99998649255	1.470947265625E-05	0.79925537109375	5365.76837745274	536
5359.9999864673	1.48773193359375E-05	0.799560546875	5375.76837742749	537
5369.99998644205	1.39495849609375E-05	0.799560546875	5385.76837740224	538
5379.99998641681	1.490478515625E-05	0.8001708984375	5395.76837737699	539
5389.99998639156	1.45660400390625E-05	0.799560546875	5405.76837735175	540
5399.99998636631	1.510009765625E-05	0.799560546875	5415.7683773265	541
5409.99998634106	1.44012451171875E-05	0.79986572265625	5425.76837730125	542
5419.99998631582	1.44989013671875E-05	0.79986572265625	5435.768377276	543
5429.99998629057	1.46759033203125E-05	0.799560546875	5445.76837725076	544
5439.99998626532	1.36383056640625E-05	0.799560546875	5455.76837722551	545
5449.99998624007	1.431884765625E-05	0.79925537109375	5465.76837720026	546
5459.99998621483	1.43402099609375E-05	0.799560546875	5475.76837717501	547
5469.99998618958	1.4202880859375E-05	0.79986572265625	5485.76837714977	548
5479.99998616433	1.45263671875E-05	0.8001708984375	5495.76837712452	549
5489.99998613908	1.41448974609375E-05	0.799560546875	5505.76837709927	550
5499.99998611383	1.3983154296875E-05	0.79986572265625	5515.76837707402	551
5509.99998608859	1.3671875E-05	0.799560546875	5525.76837704878	552
5519.99998606334	1.45416259765625E-05	0.79925537109375	5535.76837702353	553
5529.99998603809	1.34857177734375E-05	0.799560546875	5545.76837699828	554
5539.99998601284	1.451416015625E-05	0.79986572265625	5555.76837697303	555
5549.9999859876	1.37908935546875E-05	0.799560546875	5565.76837694779	556
5559.99998596235	1.41265869140625E-05	0.7989501953125	5575.76837692254	557
5569.9999859371	1.3494873046875E-05	0.799560546875	5585.76837689729	558
5579.99998591185	1.3800048828125E-05	0.799560546875	5595.76837687204	559
5589.99998588661	1.29974365234375E-05	0.799560546875	5605.7683768468	560
5599.99998586136	1.41021728515625E-05	0.79986572265625	5615.76837682155	561
5609.99998583611	1.38397216796875E-05	0.79986572265625	5625.7683767963	562
5619.99998581086	1.3677978515625E-05	0.79925537109375	5635.76837677105	563
5629.99998578562	1.44287109375E-05	0.799560546875	5645.7683767458	564
5639.99998576037	1.34552001953125E-05	0.79986572265625	5655.76837672056	565
5649.99998573512	1.3641357421875E-05	0.79986572265625	5665.76837669531	566
5659.99998570987	1.33392333984375E-05	0.799560546875	5675.76837667006	567
5669.99998568463	1.30584716796875E-05	0.79986572265625	5685.76837664481	568
5679.99998565938	1.35772705078125E-05	0.8001708984375	5695.76837661957	569
5689.99998563413	1.35833740234375E-05	0.79986572265625	5705.76837659432	570
5699.99998560888	1.34185791015625E-05	0.79986572265625	5715.76837656907	571
5709.99998558364	1.39862060546875E-05	0.799560546875	5725.76837654382	572
5719.99998555839	1.33026123046875E-05	0.799560546875	5735.76837651858	573
5729.99998553314	1.34735107421875E-05	0.79986572265625	5745.76837649333	574
5739.99998550789	1.33544921875E-05	0.799560546875	5755.76837646808	575
5749.99998548265	1.35833740234375E-05	0.799560546875	5765.76837644283	576
5759.9999854574	1.3238525390625E-05	0.79986572265625	5775.76837641759	577
5769.99998543215	1.343994140625E-05	0.7989501953125	5785.76837639234	578
5779.9999854069	1.3299560546875E-05	0.799560546875	5795.76837636709	579
5789.99998538166	1.29241943359375E-05	0.79986572265625	5805.76837634184	580
5799.99998535641	1.3018798828125E-05	0.8001708984375	5815.7683763166	581
5809.99998533116	1.29180908203125E-05	0.79986572265625	5825.76837629135	582
5819.99998530591	1.31988525390625E-05	0.79925537109375	5835.7683762661	583
5829.99998528067	1.343994140625E-05	0.8001708984375	5845.76837624085	584
5839.99998525542	1.263427734375E-05	0.79986572265625	5855.76837621561	585
5849.99998523017	1.265869140625E-05	0.79986572265625	5865.76837619036	586
5859.99998520492	1.23992919921875E-05	0.799560546875	5875.76837616511	587
5869.99998517967	1.28509521484375E-05	0.79986572265625	5885.76837613986	588
5879.99998515443	1.26190185546875E-05	0.8001708984375	5895.76837611462	589
5889.99998512918	1.3037109375E-05	0.79986572265625	5905.76837608937	590
5899.99998510393	1.295166015625E-05	0.799560546875	5915.76837606412	591
5909.99998507868	1.328125E-05	0.79986572265625	5925.76837603887	592
5919.99998505344	1.2261962890625E-05	0.79925537109375	5935.76837601363	593
5929.99998502819	1.24908447265625E-05	0.8001708984375	5945.76837598838	594
5939.99998500294	1.2701416015625E-05	0.8001708984375	5955.76837596313	595
5949.99998497769	1.2042236328125E-05	0.799560546875	5965.76837593788	596
5959.99998495245	1.28936767578125E-05	0.79986572265625	5975.76837591263	597
5969.9999849272	1.2469482421875E-05	0.79986572265625	5985.76837588739	598
5979.99998490195	1.20147705078125E-05	0.79986572265625	5995.76837586214	599
5989.9999848767	1.2384033203125E-05	0.79986572265625	6005.76837583689	600
5999.99998485146	1.1737060546875E-05	0.79925537109375	6015.76837581164	601
6009.99998482621	1.2091064453125E-05	0.799560546875	6025.7683757864	602
6019.99998480096	1.1944580078125E-05	0.799560546875	6035.76837576115	603
6029.99998477571	1.2371826171875E-05	0.799560546875	6045.7683757359	604
6039.99998475047	1.239013671875E-05	0.79986572265625	6055.76837571065	605
6049.99998472522	1.25640869140625E-05	0.79986572265625	6065.76837568541	606
6059.99998469997	1.26129150390625E-05	0.79986572265625	6075.76837566016	607
6069.99998467472	1.21612548828125E-05	0.79986572265625	6085.76837563491	608
6079.99998464948	1.22528076171875E-05	0.79925537109375	6095.76837560966	609
6089.99998462423	1.3726806640625E-05	0.799560546875	6105.76837558442	610
6099.99998459898	1.7047119140625E-05	0.79986572265625	6115.76837555917	611
6109.99998457373	1.92047119140625E-05	0.79986572265625	6125.76837553392	612
6119.99998454849	2.3211669921875E-05	0.79986572265625	6135.76837550867	613
6129.99998452324	2.45208740234375E-05	0.79986572265625	6145.76837548343	614
6139.99998449799	2.48626708984375E-05	0.799560546875	6155.76837545818	615
6149.99998447274	2.5457763671875E-05	0.8001708984375	6165.76837543293	616
6159.9999844475	2.5616455078125E-05	0.79986572265625	6175.76837540768	617
6169.99998442225	2.418212890625E-05	0.799560546875	6185.76837538244	618
6179.999984397	2.39959716796875E-05	0.799560546875	6195.76837535719	619
6189.99998437175	2.48382568359375E-05	0.799560546875	6205.76837533194	620
6199.9999843465	2.46978759765625E-05	0.79986572265625	6215.76837530669	621
6209.99998432126	2.4603271484375E-05	0.8001708984375	6225.76837528145	622
6219.99998429601	2.5341796875E-05	0.79925537109375	6235.7683752562	623
6229.99998427076	2.4957275390625E-05	0.79986572265625	6245.76837523095	624
6239.99998424551	2.464599609375E-05	0.799560546875	6255.7683752057	625
6249.99998422027	2.44842529296875E-05	0.799560546875	6265.76837518046	626
6259.99998419502	2.49542236328125E-05	0.799560546875	6275.76837515521	627
6269.99998416977	2.34039306640625E-05	0.799560546875	6285.76837512996	628
6279.99998414452	2.3760986328125E-05	0.799560546875	6295.76837510471	629
6289.99998411928	2.39959716796875E-05	0.79986572265625	6305.76837507946	630
6299.99998409403	2.3553466796875E-05	0.79986572265625	6315.76837505422	631
6309.99998406878	2.24517822265625E-05	0.799560546875	6325.76837502897	632
