Time (s);WE(1).Potential (V);WE(1).Current (A);Corrected time (s);Index
16.1771529591566;0.8001708984375;0.00044793701171875;0;1
26.177152933909;0.7989501953125;0.000439483642578125;9.99999997475243;2
36.1771529086615;0.799560546875;0.000438812255859375;19.9999999495049;3
46.1771528834139;0.79986572265625;0.000412109375;29.9999999242573;4
56.1771528581663;0.79986572265625;0.000422821044921875;39.9999998990097;5
66.1771528329188;0.79986572265625;0.000409210205078125;49.9999998737621;6
76.1771528076712;0.80047607421875;0.000398040771484375;59.9999998485146;7
86.1771527824236;0.8001708984375;0.000396270751953125;69.999999823267;8
96.177152757176;0.8001708984375;0.00039422607421875;79.9999997980194;9
106.177152731928;0.8001708984375;0.000379547119140625;89.9999997727718;10
116.177152706681;0.8001708984375;0.000385040283203125;99.9999997475243;11
126.177152681433;0.79986572265625;0.0003724365234375;109.999999722277;12
136.177152656186;0.79986572265625;0.00036480712890625;119.999999697029;13
146.177152630938;0.79925537109375;0.0003743896484375;129.999999671782;14
156.177152605691;0.799560546875;0.00035882568359375;139.999999646534;15
166.177152580443;0.79986572265625;0.00035516357421875;149.999999621286;16
176.177152555195;0.79986572265625;0.00036431884765625;159.999999596039;17
186.177152529948;0.799560546875;0.00034649658203125;169.999999570791;18
196.1771525047;0.79925537109375;0.00034698486328125;179.999999545544;19
206.177152479453;0.799560546875;0.000337249755859375;189.999999520296;20
216.177152454205;0.79925537109375;0.000331512451171875;199.999999495049;21
226.177152428958;0.79986572265625;0.000329498291015625;209.999999469801;22
236.17715240371;0.799560546875;0.000327667236328125;219.999999444553;23
246.177152378462;0.79986572265625;0.000320770263671875;229.999999419306;24
256.177152353215;0.79986572265625;0.000315887451171875;239.999999394058;25
266.177152327967;0.799560546875;0.000312530517578125;249.999999368811;26
276.17715230272;0.79986572265625;0.0003104248046875;259.999999343563;27
286.177152277472;0.79986572265625;0.000304840087890625;269.999999318316;28
296.177152252225;0.79986572265625;0.000308197021484375;279.999999293068;29
306.177152226977;0.8001708984375;0.00030609130859375;289.99999926782;30
316.177152201729;0.79986572265625;0.0003028564453125;299.999999242573;31
326.177152176482;0.79925537109375;0.000294891357421875;309.999999217325;32
336.177152151234;0.79986572265625;0.000290252685546875;319.999999192078;33
346.177152125987;0.8001708984375;0.000289703369140625;329.99999916683;34
356.177152100739;0.79986572265625;0.000285552978515625;339.999999141583;35
366.177152075492;0.79986572265625;0.000288604736328125;349.999999116335;36
376.177152050244;0.79986572265625;0.000283660888671875;359.999999091087;37
386.177152024996;0.79986572265625;0.0002830810546875;369.99999906584;38
396.177151999749;0.79925537109375;0.000275146484375;379.999999040592;39
406.177151974501;0.80047607421875;0.000269500732421875;389.999999015345;40
416.177151949254;0.80047607421875;0.000261199951171875;399.999998990097;41
426.177151924006;0.79986572265625;0.000258087158203125;409.99999896485;42
436.177151898759;0.8001708984375;0.00026129150390625;419.999998939602;43
446.177151873511;0.79925537109375;0.000263275146484375;429.999998914354;44
456.177151848263;0.79925537109375;0.00025360107421875;439.999998889107;45
466.177151823016;0.799560546875;0.000260009765625;449.999998863859;46
476.177151797768;0.8001708984375;0.00025750732421875;459.999998838612;47
486.177151772521;0.8001708984375;0.000244659423828125;469.999998813364;48
496.177151747273;0.79986572265625;0.0002486572265625;479.999998788117;49
506.177151722026;0.79986572265625;0.0002462158203125;489.999998762869;50
516.177151696778;0.79986572265625;0.000246856689453125;499.999998737621;51
526.17715167153;0.799560546875;0.000237762451171875;509.999998712374;52
536.177151646283;0.79986572265625;0.000237274169921875;519.999998687126;53
546.177151621035;0.79925537109375;0.000232330322265625;529.999998661879;54
556.177151595788;0.8001708984375;0.000232940673828125;539.999998636631;55
566.17715157054;0.8001708984375;0.00023211669921875;549.999998611383;56
576.177151545293;0.79986572265625;0.000228851318359375;559.999998586136;57
586.177151520045;0.799560546875;0.00022796630859375;569.999998560888;58
596.177151494797;0.8001708984375;0.00022564697265625;579.999998535641;59
606.17715146955;0.79925537109375;0.000219573974609375;589.999998510393;60
616.177151444302;0.79986572265625;0.00021490478515625;599.999998485146;61
626.177151419055;0.799560546875;0.000213043212890625;609.999998459898;62
636.177151393807;0.799560546875;0.000213714599609375;619.99999843465;63
646.17715136856;0.8001708984375;0.000208343505859375;629.999998409403;64
656.177151343312;0.799560546875;0.000209564208984375;639.999998384155;65
666.177151318064;0.79925537109375;0.00021746826171875;649.999998358908;66
676.177151292817;0.8001708984375;0.00020941162109375;659.99999833366;67
686.177151267569;0.79986572265625;0.000211395263671875;669.999998308413;68
696.177151242322;0.80047607421875;0.00020758056640625;679.999998283165;69
706.177151217074;0.79925537109375;0.000204559326171875;689.999998257917;70
716.177151191827;0.79986572265625;0.00019708251953125;699.99999823267;71
726.177151166579;0.80047607421875;0.00020013427734375;709.999998207422;72
736.177151141331;0.79986572265625;0.00019256591796875;719.999998182175;73
746.177151116084;0.8001708984375;0.000192230224609375;729.999998156927;74
756.177151090836;0.8001708984375;0.000192352294921875;739.99999813168;75
766.177151065589;0.799560546875;0.000190826416015625;749.999998106432;76
776.177151040341;0.79986572265625;0.00019195556640625;759.999998081184;77
786.177151015094;0.79986572265625;0.0001907958984375;769.999998055937;78
796.177150989846;0.79986572265625;0.0001824951171875;779.999998030689;79
806.177150964598;0.79986572265625;0.0001854248046875;789.999998005442;80
816.177150939351;0.799560546875;0.00018292236328125;799.999997980194;81
826.177150914103;0.79925537109375;0.0001781005859375;809.999997954947;82
836.177150888856;0.799560546875;0.00017547607421875;819.999997929699;83
846.177150863608;0.8001708984375;0.00017669677734375;829.999997904451;84
856.17715083836;0.799560546875;0.0001767578125;839.999997879204;85
866.177150813113;0.8001708984375;0.000188690185546875;849.999997853956;86
876.177150787865;0.79986572265625;0.000180633544921875;859.999997828709;87
886.177150762618;0.799560546875;0.000174835205078125;869.999997803461;88
896.17715073737;0.79986572265625;0.000173675537109375;879.999997778214;89
906.177150712123;0.79986572265625;0.00017205810546875;889.999997752966;90
916.177150686875;0.8001708984375;0.000172454833984375;899.999997727718;91
926.177150661627;0.8001708984375;0.000169830322265625;909.999997702471;92
936.17715063638;0.79986572265625;0.000166290283203125;919.999997677223;93
946.177150611132;0.799560546875;0.000167236328125;929.999997651976;94
956.177150585885;0.8001708984375;0.00017010498046875;939.999997626728;95
966.177150560637;0.8001708984375;0.00016302490234375;949.999997601481;96
976.17715053539;0.799560546875;0.00016302490234375;959.999997576233;97
986.177150510142;0.79986572265625;0.000161468505859375;969.999997550985;98
996.177150484894;0.79986572265625;0.00015948486328125;979.999997525738;99
1006.17715045965;0.79986572265625;0.00016168212890625;989.99999750049;100
1016.1771504344;0.79925537109375;0.000160797119140625;999.999997475243;101
1026.17715040915;0.79986572265625;0.000157379150390625;1009.99999745;102
1036.1771503839;0.799560546875;0.0001553955078125;1019.99999742475;103
1046.17715035866;0.79925537109375;0.000155364990234375;1029.9999973995;104
1056.17715033341;0.799560546875;0.0001519775390625;1039.99999737425;105
1066.17715030816;0.8001708984375;0.000155059814453125;1049.999997349;106
1076.17715028291;0.79986572265625;0.000153656005859375;1059.99999732376;107
1086.17715025767;0.8001708984375;0.00015380859375;1069.99999729851;108
1096.17715023242;0.799560546875;0.000151123046875;1079.99999727326;109
1106.17715020717;0.8001708984375;0.0001484375;1089.99999724801;110
1116.17715018192;0.79986572265625;0.00014813232421875;1099.99999722277;111
1126.17715015668;0.8001708984375;0.000142608642578125;1109.99999719752;112
1136.17715013143;0.799560546875;0.000145355224609375;1119.99999717227;113
1146.17715010618;0.79986572265625;0.00014459228515625;1129.99999714702;114
1156.17715008093;0.79986572265625;0.000143951416015625;1139.99999712178;115
1166.17715005569;0.80047607421875;0.00014141845703125;1149.99999709653;116
1176.17715003044;0.79986572265625;0.0001378173828125;1159.99999707128;117
1186.17715000519;0.79986572265625;0.000139495849609375;1169.99999704603;118
1196.17714997994;0.79986572265625;0.00013629150390625;1179.99999702079;119
1206.1771499547;0.79986572265625;0.000138153076171875;1189.99999699554;120
1216.17714992945;0.79986572265625;0.0001378173828125;1199.99999697029;121
1226.1771499042;0.80047607421875;0.000135162353515625;1209.99999694504;122
1236.17714987895;0.79986572265625;0.00013470458984375;1219.9999969198;123
1246.17714985371;0.80047607421875;0.00013543701171875;1229.99999689455;124
1256.17714982846;0.79925537109375;0.0001312255859375;1239.9999968693;125
1266.17714980321;0.79925537109375;0.000132415771484375;1249.99999684405;126
1276.17714977796;0.79925537109375;0.000130615234375;1259.99999681881;127
1286.17714975271;0.79925537109375;0.000129241943359375;1269.99999679356;128
1296.17714972747;0.80047607421875;0.000126190185546875;1279.99999676831;129
1306.17714970222;0.8001708984375;0.00012664794921875;1289.99999674306;130
1316.17714967697;0.79925537109375;0.0001260986328125;1299.99999671782;131
1326.17714965172;0.79986572265625;0.0001241455078125;1309.99999669257;132
1336.17714962648;0.8001708984375;0.000125213623046875;1319.99999666732;133
1346.17714960123;0.79986572265625;0.000125;1329.99999664207;134
1356.17714957598;0.8001708984375;0.00012103271484375;1339.99999661683;135
1366.17714955073;0.79986572265625;0.000120635986328125;1349.99999659158;136
1376.17714952549;0.799560546875;0.000119293212890625;1359.99999656633;137
1386.17714950024;0.8001708984375;0.000119171142578125;1369.99999654108;138
1396.17714947499;0.8001708984375;0.000118377685546875;1379.99999651583;139
1406.17714944974;0.799560546875;0.000116973876953125;1389.99999649059;140
1416.1771494245;0.79986572265625;0.000115814208984375;1399.99999646534;141
1426.17714939925;0.80047607421875;0.000116424560546875;1409.99999644009;142
1436.177149374;0.8001708984375;0.0001158447265625;1419.99999641484;143
1446.17714934875;0.79925537109375;0.0001148681640625;1429.9999963896;144
1456.17714932351;0.8001708984375;0.000113800048828125;1439.99999636435;145
1466.17714929826;0.79986572265625;0.000113250732421875;1449.9999963391;146
1476.17714927301;0.79925537109375;0.000110992431640625;1459.99999631385;147
1486.17714924776;0.8001708984375;0.00011004638671875;1469.99999628861;148
1496.17714922252;0.79986572265625;0.000111602783203125;1479.99999626336;149
1506.17714919727;0.8001708984375;0.00010894775390625;1489.99999623811;150
1516.17714917202;0.79986572265625;0.000108673095703125;1499.99999621286;151
1526.17714914677;0.79986572265625;0.000106292724609375;1509.99999618762;152
1536.17714912153;0.8001708984375;0.000107086181640625;1519.99999616237;153
1546.17714909628;0.79986572265625;0.00010760498046875;1529.99999613712;154
1556.17714907103;0.799560546875;0.000104278564453125;1539.99999611187;155
1566.17714904578;0.79986572265625;0.00010443115234375;1549.99999608663;156
1576.17714902054;0.80047607421875;0.00010382080078125;1559.99999606138;157
1586.17714899529;0.80078125;0.000100128173828125;1569.99999603613;158
1596.17714897004;0.80047607421875;0.000102325439453125;1579.99999601088;159
1606.17714894479;0.80047607421875;0.00010125732421875;1589.99999598564;160
1616.17714891954;0.8001708984375;0.00010064697265625;1599.99999596039;161
1626.1771488943;0.79986572265625;9.99755859375E-05;1609.99999593514;162
1636.17714886905;0.79986572265625;9.89990234375E-05;1619.99999590989;163
1646.1771488438;0.7989501953125;9.85107421875E-05;1629.99999588465;164
1656.17714881855;0.79925537109375;9.8968505859375E-05;1639.9999958594;165
1666.17714879331;0.80047607421875;9.7930908203125E-05;1649.99999583415;166
1676.17714876806;0.799560546875;9.539794921875E-05;1659.9999958089;167
1686.17714874281;0.8001708984375;9.3841552734375E-05;1669.99999578366;168
1696.17714871756;0.79986572265625;9.4085693359375E-05;1679.99999575841;169
1706.17714869232;0.799560546875;9.33837890625E-05;1689.99999573316;170
1716.17714866707;0.79986572265625;9.326171875E-05;1699.99999570791;171
1726.17714864182;0.8001708984375;9.112548828125E-05;1709.99999568267;172
1736.17714861657;0.80108642578125;9.3048095703125E-05;1719.99999565742;173
1746.17714859133;0.80047607421875;9.259033203125E-05;1729.99999563217;174
1756.17714856608;0.79986572265625;9.149169921875E-05;1739.99999560692;175
1766.17714854083;0.7989501953125;9.100341796875E-05;1749.99999558167;176
1776.17714851558;0.79925537109375;8.8653564453125E-05;1759.99999555643;177
1786.17714849034;0.79925537109375;8.8653564453125E-05;1769.99999553118;178
1796.17714846509;0.79986572265625;8.8958740234375E-05;1779.99999550593;179
1806.17714843984;0.80078125;8.8623046875E-05;1789.99999548068;180
1816.17714841459;0.79986572265625;8.709716796875E-05;1799.99999545544;181
1826.17714838935;0.79986572265625;8.8653564453125E-05;1809.99999543019;182
1836.1771483641;0.7989501953125;8.831787109375E-05;1819.99999540494;183
1846.17714833885;0.7989501953125;8.5968017578125E-05;1829.99999537969;184
1856.1771483136;0.8001708984375;8.6456298828125E-05;1839.99999535445;185
1866.17714828836;0.8001708984375;8.58154296875E-05;1849.9999953292;186
1876.17714826311;0.80047607421875;8.36181640625E-05;1859.99999530395;187
1886.17714823786;0.8013916015625;8.2763671875E-05;1869.9999952787;188
1896.17714821261;0.80108642578125;8.23974609375E-05;1879.99999525346;189
1906.17714818737;0.80047607421875;8.160400390625E-05;1889.99999522821;190
1916.17714816212;0.79864501953125;8.2305908203125E-05;1899.99999520296;191
1926.17714813687;0.7989501953125;8.1817626953125E-05;1909.99999517771;192
1936.17714811162;0.79986572265625;8.3099365234375E-05;1919.99999515247;193
1946.17714808637;0.80108642578125;8.04443359375E-05;1929.99999512722;194
1956.17714806113;0.8001708984375;8.0047607421875E-05;1939.99999510197;195
1966.17714803588;0.79925537109375;8.062744140625E-05;1949.99999507672;196
1976.17714801063;0.79864501953125;7.977294921875E-05;1959.99999505148;197
1986.17714798538;0.79864501953125;7.9345703125E-05;1969.99999502623;198
1996.17714796014;0.79925537109375;8.050537109375E-05;1979.99999500098;199
2006.17714793489;0.80047607421875;7.8857421875E-05;1989.99999497573;200
2016.17714790964;0.80078125;7.8521728515625E-05;1999.99999495049;201
2026.17714788439;0.80047607421875;7.9315185546875E-05;2009.99999492524;202
2036.17714785915;0.79986572265625;7.769775390625E-05;2019.99999489999;203
2046.1771478339;0.79864501953125;7.830810546875E-05;2029.99999487474;204
2056.17714780865;0.79925537109375;7.6995849609375E-05;2039.9999948495;205
2066.1771477834;0.799560546875;7.5836181640625E-05;2049.99999482425;206
2076.17714775816;0.80078125;7.489013671875E-05;2059.999994799;207
2086.17714773291;0.8001708984375;7.647705078125E-05;2069.99999477375;208
2096.17714770766;0.80047607421875;7.3455810546875E-05;2079.9999947485;209
2106.17714768241;0.79986572265625;7.452392578125E-05;2089.99999472326;210
2116.17714765717;0.79986572265625;7.501220703125E-05;2099.99999469801;211
2126.17714763192;0.79925537109375;7.4554443359375E-05;2109.99999467276;212
2136.17714760667;0.799560546875;7.2723388671875E-05;2119.99999464751;213
2146.17714758142;0.7989501953125;7.3272705078125E-05;2129.99999462227;214
2156.17714755618;0.79925537109375;7.1502685546875E-05;2139.99999459702;215
2166.17714753093;0.799560546875;7.220458984375E-05;2149.99999457177;216
2176.17714750568;0.79864501953125;7.2906494140625E-05;2159.99999454652;217
2186.17714748043;0.79864501953125;6.9366455078125E-05;2169.99999452128;218
2196.17714745519;0.799560546875;7.2235107421875E-05;2179.99999449603;219
2206.17714742994;0.799560546875;7.1319580078125E-05;2189.99999447078;220
2216.17714740469;0.79986572265625;7.1044921875E-05;2199.99999444553;221
2226.17714737944;0.7989501953125;7.0404052734375E-05;2209.99999442029;222
2236.1771473542;0.7989501953125;7.0281982421875E-05;2219.99999439504;223
2246.17714732895;0.79986572265625;7.0709228515625E-05;2229.99999436979;224
2256.1771473037;0.79986572265625;6.92138671875E-05;2239.99999434454;225
2266.17714727845;0.80078125;6.8634033203125E-05;2249.9999943193;226
2276.17714725321;0.80078125;6.93359375E-05;2259.99999429405;227
2286.17714722796;0.80047607421875;6.9091796875E-05;2269.9999942688;228
2296.17714720271;0.79986572265625;6.7779541015625E-05;2279.99999424355;229
2306.17714717746;0.79864501953125;6.7962646484375E-05;2289.99999421831;230
2316.17714715221;0.79864501953125;6.89697265625E-05;2299.99999419306;231
2326.17714712697;0.79925537109375;6.8267822265625E-05;2309.99999416781;232
2336.17714710172;0.79925537109375;6.7596435546875E-05;2319.99999414256;233
2346.17714707647;0.79986572265625;6.719970703125E-05;2329.99999411732;234
2356.17714705122;0.79986572265625;6.640625E-05;2339.99999409207;235
2366.17714702598;0.79925537109375;6.6802978515625E-05;2349.99999406682;236
2376.17714700073;0.7989501953125;6.585693359375E-05;2359.99999404157;237
2386.17714697548;0.79864501953125;6.6375732421875E-05;2369.99999401633;238
2396.17714695023;0.8001708984375;6.5582275390625E-05;2379.99999399108;239
2406.17714692499;0.8001708984375;6.4483642578125E-05;2389.99999396583;240
2416.17714689974;0.80047607421875;6.5338134765625E-05;2399.99999394058;241
2426.17714687449;0.799560546875;6.610107421875E-05;2409.99999391533;242
2436.17714684924;0.7989501953125;6.561279296875E-05;2419.99999389009;243
2446.177146824;0.8001708984375;6.3720703125E-05;2429.99999386484;244
2456.17714679875;0.80078125;6.3873291015625E-05;2439.99999383959;245
2466.1771467735;0.80047607421875;6.243896484375E-05;2449.99999381434;246
2476.17714674825;0.8001708984375;6.2835693359375E-05;2459.9999937891;247
2486.17714672301;0.8001708984375;6.34765625E-05;2469.99999376385;248
2496.17714669776;0.8001708984375;6.585693359375E-05;2479.9999937386;249
2506.17714667251;0.79986572265625;6.21337890625E-05;2489.99999371335;250
2516.17714664726;0.80047607421875;6.121826171875E-05;2499.99999368811;251
2526.17714662202;0.80047607421875;6.34765625E-05;2509.99999366286;252
2536.17714659677;0.80078125;6.268310546875E-05;2519.99999363761;253
2546.17714657152;0.80108642578125;6.2835693359375E-05;2529.99999361236;254
2556.17714654627;0.80108642578125;6.0760498046875E-05;2539.99999358712;255
2566.17714652103;0.80047607421875;6.036376953125E-05;2549.99999356187;256
2576.17714649578;0.7989501953125;5.9661865234375E-05;2559.99999353662;257
2586.17714647053;0.7989501953125;6.1981201171875E-05;2569.99999351137;258
2596.17714644528;0.79925537109375;6.15234375E-05;2579.99999348613;259
2606.17714642004;0.80047607421875;5.9539794921875E-05;2589.99999346088;260
2616.17714639479;0.80047607421875;6.036376953125E-05;2599.99999343563;261
2626.17714636954;0.8001708984375;6.01806640625E-05;2609.99999341038;262
2636.17714634429;0.79986572265625;6.1614990234375E-05;2619.99999338514;263
2646.17714631904;0.79986572265625;5.938720703125E-05;2629.99999335989;264
2656.1771462938;0.79925537109375;5.9814453125E-05;2639.99999333464;265
2666.17714626855;0.799560546875;5.8074951171875E-05;2649.99999330939;266
2676.1771462433;0.79925537109375;5.8837890625E-05;2659.99999328415;267
2686.17714621805;0.79925537109375;5.950927734375E-05;2669.9999932589;268
2696.17714619281;0.7989501953125;5.926513671875E-05;2679.99999323365;269
2706.17714616756;0.7989501953125;5.8746337890625E-05;2689.9999932084;270
2716.17714614231;0.7989501953125;5.853271484375E-05;2699.99999318316;271
2726.17714611706;0.7989501953125;5.8563232421875E-05;2709.99999315791;272
2736.17714609182;0.799560546875;5.7769775390625E-05;2719.99999313266;273
2746.17714606657;0.79925537109375;5.8990478515625E-05;2729.99999310741;274
2756.17714604132;0.799560546875;5.6793212890625E-05;2739.99999308217;275
2766.17714601607;0.7989501953125;5.706787109375E-05;2749.99999305692;276
2776.17714599083;0.799560546875;5.8135986328125E-05;2759.99999303167;277
2786.17714596558;0.79986572265625;5.609130859375E-05;2769.99999300642;278
2796.17714594033;0.79986572265625;5.7220458984375E-05;2779.99999298117;279
2806.17714591508;0.80047607421875;5.7525634765625E-05;2789.99999295593;280
2816.17714588984;0.799560546875;5.6304931640625E-05;2799.99999293068;281
2826.17714586459;0.8001708984375;5.6854248046875E-05;2809.99999290543;282
2836.17714583934;0.80047607421875;5.5694580078125E-05;2819.99999288018;283
2846.17714581409;0.79925537109375;5.8380126953125E-05;2829.99999285494;284
2856.17714578885;0.79925537109375;5.4534912109375E-05;2839.99999282969;285
2866.1771457636;0.79986572265625;5.377197265625E-05;2849.99999280444;286
2876.17714573835;0.7989501953125;5.413818359375E-05;2859.99999277919;287
2886.1771457131;0.79925537109375;5.5145263671875E-05;2869.99999275395;288
2896.17714568786;0.79864501953125;5.84716796875E-05;2879.9999927287;289
2906.17714566261;0.8001708984375;5.523681640625E-05;2889.99999270345;290
2916.17714563736;0.80047607421875;5.4351806640625E-05;2899.9999926782;291
2926.17714561211;0.80047607421875;5.7098388671875E-05;2909.99999265296;292
2936.17714558687;0.8001708984375;5.3192138671875E-05;2919.99999262771;293
2946.17714556162;0.80047607421875;5.389404296875E-05;2929.99999260246;294
2956.17714553637;0.80047607421875;5.4168701171875E-05;2939.99999257721;295
2966.17714551112;0.80047607421875;5.33447265625E-05;2949.99999255197;296
2976.17714548587;0.79986572265625;5.43212890625E-05;2959.99999252672;297
2986.17714546063;0.80047607421875;5.45654296875E-05;2969.99999250147;298
2996.17714543538;0.80047607421875;5.3131103515625E-05;2979.99999247622;299
3006.17714541013;0.80047607421875;5.3558349609375E-05;2989.99999245098;300
3016.17714538488;0.80047607421875;5.224609375E-05;2999.99999242573;301
3026.17714535964;0.80047607421875;5.1361083984375E-05;3009.99999240048;302
3036.17714533439;0.799560546875;5.18798828125E-05;3019.99999237523;303
3046.17714530914;0.799560546875;5.120849609375E-05;3029.99999234999;304
3056.17714528389;0.79925537109375;5.2093505859375E-05;3039.99999232474;305
3066.17714525865;0.79925537109375;5.218505859375E-05;3049.99999229949;306
3076.1771452334;0.8001708984375;5.0933837890625E-05;3059.99999227424;307
3086.17714520815;0.80047607421875;5.0201416015625E-05;3069.999992249;308
3096.1771451829;0.80047607421875;5.1361083984375E-05;3079.99999222375;309
3106.17714515766;0.799560546875;5.023193359375E-05;3089.9999921985;310
3116.17714513241;0.799560546875;5.1544189453125E-05;3099.99999217325;311
3126.17714510716;0.79986572265625;5.194091796875E-05;3109.999992148;312
3136.17714508191;0.80047607421875;5.059814453125E-05;3119.99999212276;313
3146.17714505667;0.79986572265625;5.078125E-05;3129.99999209751;314
3156.17714503142;0.80047607421875;4.9835205078125E-05;3139.99999207226;315
3166.17714500617;0.8001708984375;5.0048828125E-05;3149.99999204701;316
3176.17714498092;0.799560546875;5.1300048828125E-05;3159.99999202177;317
3186.17714495568;0.799560546875;5.0018310546875E-05;3169.99999199652;318
3196.17714493043;0.79925537109375;4.96826171875E-05;3179.99999197127;319
3206.17714490518;0.8001708984375;4.9896240234375E-05;3189.99999194602;320
3216.17714487993;0.79986572265625;4.98046875E-05;3199.99999192078;321
3226.17714485469;0.80047607421875;4.94384765625E-05;3209.99999189553;322
3236.17714482944;0.80047607421875;5.0140380859375E-05;3219.99999187028;323
3246.17714480419;0.8001708984375;5.0018310546875E-05;3229.99999184503;324
3256.17714477894;0.8001708984375;4.8736572265625E-05;3239.99999181979;325
3266.1771447537;0.799560546875;4.931640625E-05;3249.99999179454;326
3276.17714472845;0.79925537109375;4.9530029296875E-05;3259.99999176929;327
3286.1771447032;0.7989501953125;4.8797607421875E-05;3269.99999174404;328
3296.17714467795;0.799560546875;4.9591064453125E-05;3279.9999917188;329
3306.17714465271;0.8001708984375;4.931640625E-05;3289.99999169355;330
3316.17714462746;0.80047607421875;4.8187255859375E-05;3299.9999916683;331
3326.17714460221;0.79986572265625;4.937744140625E-05;3309.99999164305;332
3336.17714457696;0.80047607421875;4.7637939453125E-05;3319.99999161781;333
3346.17714455171;0.80047607421875;4.827880859375E-05;3329.99999159256;334
3356.17714452647;0.79986572265625;4.8858642578125E-05;3339.99999156731;335
3366.17714450122;0.8001708984375;4.815673828125E-05;3349.99999154206;336
3376.17714447597;0.8001708984375;4.6539306640625E-05;3359.99999151682;337
3386.17714445072;0.80047607421875;4.7271728515625E-05;3369.99999149157;338
3396.17714442548;0.80047607421875;4.693603515625E-05;3379.99999146632;339
3406.17714440023;0.799560546875;4.77294921875E-05;3389.99999144107;340
3416.17714437498;0.799560546875;4.632568359375E-05;3399.99999141583;341
3426.17714434973;0.79925537109375;4.7454833984375E-05;3409.99999139058;342
3436.17714432449;0.79925537109375;4.74853515625E-05;3419.99999136533;343
3446.17714429924;0.79986572265625;4.736328125E-05;3429.99999134008;344
3456.17714427399;0.80047607421875;4.571533203125E-05;3439.99999131483;345
3466.17714424874;0.80047607421875;4.730224609375E-05;3449.99999128959;346
3476.1771442235;0.8001708984375;5.0750732421875E-05;3459.99999126434;347
3486.17714419825;0.7989501953125;4.7943115234375E-05;3469.99999123909;348
3496.177144173;0.79925537109375;4.6783447265625E-05;3479.99999121384;349
3506.17714414775;0.79986572265625;4.5379638671875E-05;3489.9999911886;350
3516.17714412251;0.799560546875;4.669189453125E-05;3499.99999116335;351
3526.17714409726;0.79986572265625;4.644775390625E-05;3509.9999911381;352
3536.17714407201;0.79986572265625;4.5562744140625E-05;3519.99999111285;353
3546.17714404676;0.80047607421875;4.5257568359375E-05;3529.99999108761;354
3556.17714402152;0.80047607421875;4.541015625E-05;3539.99999106236;355
3566.17714399627;0.80078125;4.52880859375E-05;3549.99999103711;356
3576.17714397102;0.8001708984375;4.595947265625E-05;3559.99999101186;357
3586.17714394577;0.80047607421875;4.5928955078125E-05;3569.99999098662;358
3596.17714392053;0.79986572265625;4.60205078125E-05;3579.99999096137;359
3606.17714389528;0.8001708984375;4.6142578125E-05;3589.99999093612;360
3616.17714387003;0.7989501953125;4.608154296875E-05;3599.99999091087;361
3626.17714384478;0.79925537109375;4.559326171875E-05;3609.99999088563;362
3636.17714381954;0.79986572265625;4.6295166015625E-05;3619.99999086038;363
3646.17714379429;0.7989501953125;4.5318603515625E-05;3629.99999083513;364
3656.17714376904;0.79925537109375;4.5989990234375E-05;3639.99999080988;365
3666.17714374379;0.79925537109375;4.4525146484375E-05;3649.99999078464;366
3676.17714371854;0.80047607421875;4.4952392578125E-05;3659.99999075939;367
3686.1771436933;0.80047607421875;4.4097900390625E-05;3669.99999073414;368
3696.17714366805;0.799560546875;4.486083984375E-05;3679.99999070889;369
3706.1771436428;0.79925537109375;4.4342041015625E-05;3689.99999068365;370
3716.17714361755;0.7989501953125;4.388427734375E-05;3699.9999906584;371
3726.17714359231;0.8001708984375;4.425048828125E-05;3709.99999063315;372
3736.17714356706;0.8001708984375;4.400634765625E-05;3719.9999906079;373
3746.17714354181;0.8001708984375;4.351806640625E-05;3729.99999058266;374
3756.17714351656;0.8001708984375;4.4281005859375E-05;3739.99999055741;375
3766.17714349132;0.799560546875;4.3975830078125E-05;3749.99999053216;376
3776.17714346607;0.79925537109375;4.3304443359375E-05;3759.99999050691;377
3786.17714344082;0.79986572265625;4.3701171875E-05;3769.99999048167;378
3796.17714341557;0.79986572265625;4.39453125E-05;3779.99999045642;379
3806.17714339033;0.8001708984375;4.3212890625E-05;3789.99999043117;380
3816.17714336508;0.80078125;4.327392578125E-05;3799.99999040592;381
3826.17714333983;0.80047607421875;4.302978515625E-05;3809.99999038067;382
3836.17714331458;0.79986572265625;4.30908203125E-05;3819.99999035543;383
3846.17714328934;0.79986572265625;4.26025390625E-05;3829.99999033018;384
3856.17714326409;0.80047607421875;4.278564453125E-05;3839.99999030493;385
3866.17714323884;0.79986572265625;4.2755126953125E-05;3849.99999027968;386
3876.17714321359;0.79986572265625;4.2755126953125E-05;3859.99999025444;387
3886.17714318835;0.79925537109375;4.33349609375E-05;3869.99999022919;388
3896.1771431631;0.8001708984375;4.26025390625E-05;3879.99999020394;389
3906.17714313785;0.80047607421875;4.2266845703125E-05;3889.99999017869;390
3916.1771431126;0.8001708984375;4.254150390625E-05;3899.99999015345;391
3926.17714308736;0.79986572265625;4.2572021484375E-05;3909.9999901282;392
3936.17714306211;0.79986572265625;4.2083740234375E-05;3919.99999010295;393
3946.17714303686;0.79925537109375;4.1839599609375E-05;3929.9999900777;394
3956.17714301161;0.79986572265625;4.2022705078125E-05;3939.99999005246;395
3966.17714298637;0.7989501953125;4.150390625E-05;3949.99999002721;396
3976.17714296112;0.79925537109375;4.16259765625E-05;3959.99999000196;397
3986.17714293587;0.8001708984375;4.1229248046875E-05;3969.99998997671;398
3996.17714291062;0.80047607421875;4.1656494140625E-05;3979.99998995147;399
4006.17714288537;0.80047607421875;4.1839599609375E-05;3989.99998992622;400
4016.17714286013;0.79986572265625;4.278564453125E-05;3999.99998990097;401
4026.17714283488;0.79864501953125;4.1656494140625E-05;4009.99998987572;402
4036.17714280963;0.8001708984375;4.1412353515625E-05;4019.99998985048;403
4046.17714278438;0.8001708984375;4.1595458984375E-05;4029.99998982523;404
4056.17714275914;0.8001708984375;4.119873046875E-05;4039.99998979998;405
4066.17714273389;0.79986572265625;4.1290283203125E-05;4049.99998977473;406
4076.17714270864;0.79925537109375;4.0679931640625E-05;4059.99998974949;407
4086.17714268339;0.799560546875;4.1290283203125E-05;4069.99998972424;408
4096.17714265815;0.79986572265625;4.010009765625E-05;4079.99998969899;409
4106.1771426329;0.799560546875;4.0252685546875E-05;4089.99998967374;410
4116.17714260765;0.79986572265625;4.0496826171875E-05;4099.9999896485;411
4126.1771425824;0.79986572265625;4.01611328125E-05;4109.99998962325;412
4136.17714255716;0.79925537109375;4.0252685546875E-05;4119.999989598;413
4146.17714253191;0.799560546875;4.0435791015625E-05;4129.99998957275;414
4156.17714250666;0.799560546875;3.985595703125E-05;4139.9999895475;415
4166.17714248141;0.79986572265625;4.071044921875E-05;4149.99998952226;416
4176.17714245617;0.8001708984375;3.9764404296875E-05;4159.99998949701;417
4186.17714243092;0.8001708984375;3.99169921875E-05;4169.99998947176;418
4196.17714240567;0.799560546875;4.01611328125E-05;4179.99998944651;419
4206.17714238042;0.80047607421875;4.0679931640625E-05;4189.99998942127;420
4216.17714235518;0.80078125;4.058837890625E-05;4199.99998939602;421
4226.17714232993;0.79986572265625;4.04052734375E-05;4209.99998937077;422
4236.17714230468;0.79986572265625;3.924560546875E-05;4219.99998934552;423
4246.17714227943;0.799560546875;4.0435791015625E-05;4229.99998932028;424
4256.17714225419;0.80047607421875;3.9306640625E-05;4239.99998929503;425
4266.17714222894;0.79925537109375;4.0283203125E-05;4249.99998926978;426
4276.17714220369;0.79986572265625;3.912353515625E-05;4259.99998924453;427
4286.17714217844;0.79986572265625;4.022216796875E-05;4269.99998921929;428
4296.1771421532;0.8001708984375;3.9398193359375E-05;4279.99998919404;429
4306.17714212795;0.799560546875;3.900146484375E-05;4289.99998916879;430
4316.1771421027;0.79986572265625;3.9520263671875E-05;4299.99998914354;431
4326.17714207745;0.79986572265625;3.9337158203125E-05;4309.9999891183;432
