Corrected time (s);WE(1).Current (A);Time (s);WE(1).Potential (V);Index
0;0.000265472412109375;16.1618849591952;0.79986572265625;1
9.99999997475243;0.00026806640625;26.1618849339476;0.79986572265625;2
19.9999999495049;0.000235321044921875;36.1618849087;0.80108642578125;3
29.9999999242573;0.00021832275390625;46.1618848834524;0.799560546875;4
39.9999998990097;0.0002208251953125;56.1618848582049;0.79986572265625;5
49.9999998737621;0.000204254150390625;66.1618848329573;0.79864501953125;6
59.9999998485146;0.000244384765625;76.1618848077097;0.79986572265625;7
69.999999823267;0.000225128173828125;86.1618847824622;0.799560546875;8
79.9999997980194;0.00023504638671875;96.1618847572146;0.79986572265625;9
89.9999997727718;0.000196075439453125;106.161884731967;0.799560546875;10
99.9999997475243;0.0002158203125;116.161884706719;0.799560546875;11
109.999999722277;0.0001966552734375;126.161884681472;0.799560546875;12
119.999999697029;0.00022509765625;136.161884656224;0.799560546875;13
129.999999671782;0.000198944091796875;146.161884630977;0.79986572265625;14
139.999999646534;0.0001907958984375;156.161884605729;0.799560546875;15
149.999999621286;0.000213226318359375;166.161884580482;0.79986572265625;16
159.999999596039;0.000198089599609375;176.161884555234;0.79986572265625;17
169.999999570791;0.00019989013671875;186.161884529986;0.8001708984375;18
179.999999545544;0.00018902587890625;196.161884504739;0.79925537109375;19
189.999999520296;0.000181884765625;206.161884479491;0.799560546875;20
199.999999495049;0.000226165771484375;216.161884454244;0.79925537109375;21
209.999999469801;0.000205352783203125;226.161884428996;0.799560546875;22
219.999999444553;0.000208892822265625;236.161884403749;0.8001708984375;23
229.999999419306;0.000193359375;246.161884378501;0.79986572265625;24
239.999999394058;0.00017913818359375;256.161884353253;0.79986572265625;25
249.999999368811;0.000181610107421875;266.161884328006;0.79925537109375;26
259.999999343563;0.000214447021484375;276.161884302758;0.7989501953125;27
269.999999318316;0.000182464599609375;286.161884277511;0.799560546875;28
279.999999293068;0.00016986083984375;296.161884252263;0.799560546875;29
289.99999926782;0.0001961669921875;306.161884227016;0.79925537109375;30
299.999999242573;0.00017401123046875;316.161884201768;0.79986572265625;31
309.999999217325;0.000183685302734375;326.16188417652;0.799560546875;32
319.999999192078;0.00018267822265625;336.161884151273;0.8001708984375;33
329.99999916683;0.000168182373046875;346.161884126025;0.799560546875;34
339.999999141583;0.000156982421875;356.161884100778;0.7989501953125;35
349.999999116335;0.0001656494140625;366.16188407553;0.799560546875;36
359.999999091087;0.000165191650390625;376.161884050283;0.799560546875;37
369.99999906584;0.000177520751953125;386.161884025035;0.79986572265625;38
379.999999040592;0.00017138671875;396.161883999787;0.79986572265625;39
389.999999015345;0.000185272216796875;406.16188397454;0.79986572265625;40
399.999998990097;0.000151885986328125;416.161883949292;0.8001708984375;41
409.99999896485;0.00016015625;426.161883924045;0.799560546875;42
419.999998939602;0.000189788818359375;436.161883898797;0.79986572265625;43
429.999998914354;0.00015460205078125;446.16188387355;0.79986572265625;44
439.999998889107;0.00014410400390625;456.161883848302;0.79925537109375;45
449.999998863859;0.000168975830078125;466.161883823054;0.8001708984375;46
459.999998838612;0.000147125244140625;476.161883797807;0.79986572265625;47
469.999998813364;0.000170806884765625;486.161883772559;0.799560546875;48
479.999998788117;0.0001484375;496.161883747312;0.79925537109375;49
489.999998762869;0.000148956298828125;506.161883722064;0.79986572265625;50
499.999998737621;0.000155059814453125;516.161883696817;0.7989501953125;51
509.999998712374;0.000170013427734375;526.161883671569;0.80047607421875;52
519.999998687126;0.000153839111328125;536.161883646321;0.799560546875;53
529.999998661879;0.000164031982421875;546.161883621074;0.79986572265625;54
539.999998636631;0.00015704345703125;556.161883595826;0.799560546875;55
549.999998611383;0.000135101318359375;566.161883570579;0.8001708984375;56
559.999998586136;0.00013330078125;576.161883545331;0.8001708984375;57
569.999998560888;0.00013458251953125;586.161883520084;0.79986572265625;58
579.999998535641;0.000134185791015625;596.161883494836;0.79986572265625;59
589.999998510393;0.000132537841796875;606.161883469588;0.79986572265625;60
599.999998485146;0.000153839111328125;616.161883444341;0.79986572265625;61
609.999998459898;0.0001312255859375;626.161883419093;0.79925537109375;62
619.99999843465;0.00012939453125;636.161883393846;0.8001708984375;63
629.999998409403;0.0001348876953125;646.161883368598;0.799560546875;64
639.999998384155;0.000127349853515625;656.161883343351;0.8001708984375;65
649.999998358908;0.000129852294921875;666.161883318103;0.79986572265625;66
659.99999833366;0.000121795654296875;676.161883292855;0.799560546875;67
669.999998308413;0.000134307861328125;686.161883267608;0.79925537109375;68
679.999998283165;0.000131195068359375;696.16188324236;0.8001708984375;69
689.999998257917;0.00011444091796875;706.161883217113;0.79925537109375;70
699.99999823267;0.000126861572265625;716.161883191865;0.8001708984375;71
709.999998207422;0.000127532958984375;726.161883166617;0.8001708984375;72
719.999998182175;0.000103302001953125;736.16188314137;0.79925537109375;73
729.999998156927;0.000123565673828125;746.161883116122;0.79925537109375;74
739.99999813168;0.000108062744140625;756.161883090875;0.799560546875;75
749.999998106432;0.000125213623046875;766.161883065627;0.8001708984375;76
759.999998081184;0.000105224609375;776.16188304038;0.8001708984375;77
769.999998055937;0.00011199951171875;786.161883015132;0.799560546875;78
779.999998030689;0.000114471435546875;796.161882989884;0.7989501953125;79
789.999998005442;0.000121826171875;806.161882964637;0.79986572265625;80
799.999997980194;0.000105255126953125;816.161882939389;0.799560546875;81
809.999997954947;0.00011273193359375;826.161882914142;0.799560546875;82
819.999997929699;0.00012030029296875;836.161882888894;0.80047607421875;83
829.999997904451;0.000100677490234375;846.161882863647;0.8001708984375;84
839.999997879204;0.000100189208984375;856.161882838399;0.79986572265625;85
849.999997853956;0.0001112060546875;866.161882813151;0.79925537109375;86
859.999997828709;0.000111358642578125;876.161882787904;0.799560546875;87
869.999997803461;0.000112060546875;886.161882762656;0.79986572265625;88
879.999997778214;0.0001136474609375;896.161882737409;0.79986572265625;89
889.999997752966;9.0179443359375E-05;906.161882712161;0.799560546875;90
899.999997727718;0.00010540771484375;916.161882686914;0.8001708984375;91
909.999997702471;0.000104034423828125;926.161882661666;0.79986572265625;92
919.999997677223;8.746337890625E-05;936.161882636418;0.799560546875;93
929.999997651976;0.000104461669921875;946.161882611171;0.799560546875;94
939.999997626728;9.8114013671875E-05;956.161882585923;0.79986572265625;95
949.999997601481;0.000104522705078125;966.161882560676;0.79986572265625;96
959.999997576233;0.000100433349609375;976.161882535428;0.799560546875;97
969.999997550985;9.2071533203125E-05;986.161882510181;0.79986572265625;98
979.999997525738;9.1888427734375E-05;996.161882484933;0.7989501953125;99
989.99999750049;9.5672607421875E-05;1006.16188245969;0.79986572265625;100
999.999997475243;8.770751953125E-05;1016.16188243444;0.79925537109375;101
1009.99999745;9.7412109375E-05;1026.16188240919;0.79986572265625;102
1019.99999742475;9.844970703125E-05;1036.16188238394;0.799560546875;103
1029.9999973995;9.19189453125E-05;1046.1618823587;0.79986572265625;104
1039.99999737425;7.9559326171875E-05;1056.16188233345;0.799560546875;105
1049.999997349;8.97216796875E-05;1066.1618823082;0.799560546875;106
1059.99999732376;9.6038818359375E-05;1076.16188228295;0.79986572265625;107
1069.99999729851;8.0780029296875E-05;1086.1618822577;0.799560546875;108
1079.99999727326;7.476806640625E-05;1096.16188223246;0.8001708984375;109
1089.99999724801;9.0484619140625E-05;1106.16188220721;0.799560546875;110
1099.99999722277;8.63037109375E-05;1116.16188218196;0.79986572265625;111
1109.99999719752;8.416748046875E-05;1126.16188215671;0.799560546875;112
1119.99999717227;8.1878662109375E-05;1136.16188213147;0.799560546875;113
1129.99999714702;8.7890625E-05;1146.16188210622;0.799560546875;114
1139.99999712178;8.7982177734375E-05;1156.16188208097;0.80047607421875;115
1149.99999709653;8.233642578125E-05;1166.16188205572;0.79986572265625;116
1159.99999707128;7.5714111328125E-05;1176.16188203048;0.79986572265625;117
1169.99999704603;7.635498046875E-05;1186.16188200523;0.79925537109375;118
1179.99999702079;8.7890625E-05;1196.16188197998;0.79986572265625;119
1189.99999699554;8.2855224609375E-05;1206.16188195473;0.79986572265625;120
1199.99999697029;7.550048828125E-05;1216.16188192949;0.799560546875;121
1209.99999694504;7.4859619140625E-05;1226.16188190424;0.79925537109375;122
1219.9999969198;7.6202392578125E-05;1236.16188187899;0.799560546875;123
1229.99999689455;8.2763671875E-05;1246.16188185374;0.79986572265625;124
1239.9999968693;8.5906982421875E-05;1256.1618818285;0.79986572265625;125
1249.99999684405;7.525634765625E-05;1266.16188180325;0.79986572265625;126
1259.99999681881;7.6080322265625E-05;1276.161881778;0.79925537109375;127
1269.99999679356;8.0108642578125E-05;1286.16188175275;0.8001708984375;128
1279.99999676831;8.0352783203125E-05;1296.16188172751;0.8001708984375;129
1289.99999674306;6.3873291015625E-05;1306.16188170226;0.799560546875;130
1299.99999671782;7.4371337890625E-05;1316.16188167701;0.79986572265625;131
1309.99999669257;7.7362060546875E-05;1326.16188165176;0.80078125;132
1319.99999666732;6.817626953125E-05;1336.16188162652;0.799560546875;133
1329.99999664207;8.966064453125E-05;1346.16188160127;0.79925537109375;134
1339.99999661683;6.9091796875E-05;1356.16188157602;0.8001708984375;135
1349.99999659158;7.1319580078125E-05;1366.16188155077;0.79986572265625;136
1359.99999656633;6.9580078125E-05;1376.16188152553;0.8001708984375;137
1369.99999654108;6.5887451171875E-05;1386.16188150028;0.8001708984375;138
1379.99999651583;7.2052001953125E-05;1396.16188147503;0.79986572265625;139
1389.99999649059;6.744384765625E-05;1406.16188144978;0.79986572265625;140
1399.99999646534;6.8389892578125E-05;1416.16188142453;0.799560546875;141
1409.99999644009;7.318115234375E-05;1426.16188139929;0.8001708984375;142
1419.99999641484;6.793212890625E-05;1436.16188137404;0.799560546875;143
1429.9999963896;6.4697265625E-05;1446.16188134879;0.8001708984375;144
1439.99999636435;6.939697265625E-05;1456.16188132354;0.79925537109375;145
1449.9999963391;5.987548828125E-05;1466.1618812983;0.79986572265625;146
1459.99999631385;6.0546875E-05;1476.16188127305;0.79986572265625;147
1469.99999628861;6.7535400390625E-05;1486.1618812478;0.8001708984375;148
1479.99999626336;6.695556640625E-05;1496.16188122255;0.79925537109375;149
1489.99999623811;6.72607421875E-05;1506.16188119731;0.799560546875;150
1499.99999621286;5.9173583984375E-05;1516.16188117206;0.79986572265625;151
1509.99999618762;6.689453125E-05;1526.16188114681;0.799560546875;152
1519.99999616237;6.5704345703125E-05;1536.16188112156;0.799560546875;153
1529.99999613712;6.7626953125E-05;1546.16188109632;0.79986572265625;154
1539.99999611187;6.26220703125E-05;1556.16188107107;0.799560546875;155
1549.99999608663;5.7647705078125E-05;1566.16188104582;0.79986572265625;156
1559.99999606138;6.182861328125E-05;1576.16188102057;0.8001708984375;157
1569.99999603613;6.1492919921875E-05;1586.16188099533;0.799560546875;158
1579.99999601088;6.7352294921875E-05;1596.16188097008;0.79986572265625;159
1589.99999598564;6.31103515625E-05;1606.16188094483;0.8001708984375;160
1599.99999596039;6.390380859375E-05;1616.16188091958;0.80047607421875;161
1609.99999593514;5.3741455078125E-05;1626.16188089434;0.79986572265625;162
1619.99999590989;6.5521240234375E-05;1636.16188086909;0.799560546875;163
1629.99999588465;6.134033203125E-05;1646.16188084384;0.79986572265625;164
1639.9999958594;6.1370849609375E-05;1656.16188081859;0.799560546875;165
1649.99999583415;6.396484375E-05;1666.16188079335;0.8001708984375;166
1659.9999958089;5.7281494140625E-05;1676.1618807681;0.79986572265625;167
1669.99999578366;5.120849609375E-05;1686.16188074285;0.79986572265625;168
1679.99999575841;5.31005859375E-05;1696.1618807176;0.79925537109375;169
1689.99999573316;5.7952880859375E-05;1706.16188069236;0.79986572265625;170
1699.99999570791;5.377197265625E-05;1716.16188066711;0.80078125;171
1709.99999568267;5.5206298828125E-05;1726.16188064186;0.8001708984375;172
1719.99999565742;5.56640625E-05;1736.16188061661;0.79925537109375;173
1729.99999563217;6.0791015625E-05;1746.16188059136;0.79986572265625;174
1739.99999560692;5.9661865234375E-05;1756.16188056612;0.799560546875;175
1749.99999558167;5.70068359375E-05;1766.16188054087;0.8001708984375;176
1759.99999555643;5.1849365234375E-05;1776.16188051562;0.79986572265625;177
1769.99999553118;5.7861328125E-05;1786.16188049037;0.79986572265625;178
1779.99999550593;5.731201171875E-05;1796.16188046513;0.79986572265625;179
1789.99999548068;5.133056640625E-05;1806.16188043988;0.8001708984375;180
1799.99999545544;5.7281494140625E-05;1816.16188041463;0.8001708984375;181
1809.99999543019;5.792236328125E-05;1826.16188038938;0.799560546875;182
1819.99999540494;5.4840087890625E-05;1836.16188036414;0.79986572265625;183
1829.99999537969;5.3466796875E-05;1846.16188033889;0.799560546875;184
1839.99999535445;4.9774169921875E-05;1856.16188031364;0.79986572265625;185
1849.9999953292;5.2734375E-05;1866.16188028839;0.79986572265625;186
1859.99999530395;4.9896240234375E-05;1876.16188026315;0.79986572265625;187
1869.9999952787;4.7637939453125E-05;1886.1618802379;0.79986572265625;188
1879.99999525346;5.1116943359375E-05;1896.16188021265;0.8001708984375;189
1889.99999522821;5.1849365234375E-05;1906.1618801874;0.79925537109375;190
1899.99999520296;4.9652099609375E-05;1916.16188016216;0.8001708984375;191
1909.99999517771;5.645751953125E-05;1926.16188013691;0.799560546875;192
1919.99999515247;4.7698974609375E-05;1936.16188011166;0.8001708984375;193
1929.99999512722;4.78515625E-05;1946.16188008641;0.799560546875;194
1939.99999510197;5.1300048828125E-05;1956.16188006117;0.80047607421875;195
1949.99999507672;4.50286865234375E-05;1966.16188003592;0.799560546875;196
1959.99999505148;5.279541015625E-05;1976.16188001067;0.79986572265625;197
1969.99999502623;4.5989990234375E-05;1986.16187998542;0.79986572265625;198
1979.99999500098;4.9285888671875E-05;1996.16187996018;0.79925537109375;199
1989.99999497573;4.72412109375E-05;2006.16187993493;0.80047607421875;200
1999.99999495049;4.61212158203125E-05;2016.16187990968;0.79986572265625;201
2009.99999492524;5.0323486328125E-05;2026.16187988443;0.79986572265625;202
2019.99999489999;4.876708984375E-05;2036.16187985919;0.79986572265625;203
2029.99999487474;4.77294921875E-05;2046.16187983394;0.8001708984375;204
2039.9999948495;5.38330078125E-05;2056.16187980869;0.799560546875;205
2049.99999482425;5.096435546875E-05;2066.16187978344;0.8001708984375;206
2059.999994799;4.64141845703125E-05;2076.1618797582;0.79925537109375;207
2069.99999477375;4.82177734375E-05;2086.16187973295;0.80047607421875;208
2079.9999947485;4.9102783203125E-05;2096.1618797077;0.799560546875;209
2089.99999472326;4.87060546875E-05;2106.16187968245;0.8001708984375;210
2099.99999469801;5.17578125E-05;2116.1618796572;0.799560546875;211
2109.99999467276;4.925537109375E-05;2126.16187963196;0.79986572265625;212
2119.99999464751;4.840087890625E-05;2136.16187960671;0.799560546875;213
2129.99999462227;5.1727294921875E-05;2146.16187958146;0.8001708984375;214
2139.99999459702;4.6331787109375E-05;2156.16187955621;0.799560546875;215
2149.99999457177;4.888916015625E-05;2166.16187953097;0.79986572265625;216
2159.99999454652;4.052734375E-05;2176.16187950572;0.79986572265625;217
2169.99999452128;4.4622802734375E-05;2186.16187948047;0.79925537109375;218
2179.99999449603;4.14520263671875E-05;2196.16187945522;0.799560546875;219
2189.99999447078;4.9224853515625E-05;2206.16187942998;0.8001708984375;220
2199.99999444553;4.432373046875E-05;2216.16187940473;0.8001708984375;221
2209.99999442029;4.42962646484375E-05;2226.16187937948;0.8001708984375;222
2219.99999439504;4.73052978515625E-05;2236.16187935423;0.799560546875;223
2229.99999436979;4.4891357421875E-05;2246.16187932899;0.799560546875;224
2239.99999434454;4.3896484375E-05;2256.16187930374;0.79986572265625;225
2249.9999943193;4.383544921875E-05;2266.16187927849;0.799560546875;226
2259.99999429405;4.5562744140625E-05;2276.16187925324;0.8001708984375;227
2269.9999942688;4.18212890625E-05;2286.161879228;0.79986572265625;228
2279.99999424355;4.3719482421875E-05;2296.16187920275;0.79986572265625;229
2289.99999421831;4.15985107421875E-05;2306.1618791775;0.79986572265625;230
2299.99999419306;4.73876953125E-05;2316.16187915225;0.79986572265625;231
2309.99999416781;4.3267822265625E-05;2326.16187912701;0.79986572265625;232
2319.99999414256;4.4512939453125E-05;2336.16187910176;0.799560546875;233
2329.99999411732;3.87725830078125E-05;2346.16187907651;0.79925537109375;234
2339.99999409207;4.3402099609375E-05;2356.16187905126;0.8001708984375;235
2349.99999406682;4.3890380859375E-05;2366.16187902602;0.799560546875;236
2359.99999404157;4.4207763671875E-05;2376.16187900077;0.79986572265625;237
