Corrected time (s);WE(1).Current (A);Time (s);WE(1).Potential (V);Index
0;0.00018414306640625;15.7776309601653;0.400390625;1
9.99999997475243;0.0002008056640625;25.7776309349177;0.40045166015625;2
19.9999999495049;0.000192474365234375;35.7776309096702;0.4000244140625;3
29.9999999242573;0.000207244873046875;45.7776308844226;0.399810791015625;4
39.9999998990097;0.000187591552734375;55.777630859175;0.400054931640625;5
49.9999998737621;0.000185028076171875;65.7776308339274;0.400115966796875;6
59.9999998485146;0.0001968994140625;75.7776308086799;0.399749755859375;7
69.999999823267;0.0001788330078125;85.7776307834323;0.39984130859375;8
79.9999997980194;0.00017724609375;95.7776307581847;0.399871826171875;9
89.9999997727718;0.0001787109375;105.777630732937;0.3995361328125;10
99.9999997475243;0.000170806884765625;115.77763070769;0.3994140625;11
109.999999722277;0.00017962646484375;125.777630682442;0.39984130859375;12
119.999999697029;0.00016943359375;135.777630657194;0.400360107421875;13
129.999999671782;0.000173492431640625;145.777630631947;0.4000244140625;14
139.999999646534;0.00016900634765625;155.777630606699;0.4002685546875;15
149.999999621286;0.00016741943359375;165.777630581452;0.400360107421875;16
159.999999596039;0.000165679931640625;175.777630556204;0.400360107421875;17
169.999999570791;0.00017169189453125;185.777630530957;0.4002685546875;18
179.999999545544;0.000162261962890625;195.777630505709;0.400421142578125;19
189.999999520296;0.00017169189453125;205.777630480461;0.400299072265625;20
199.999999495049;0.000158172607421875;215.777630455214;0.400146484375;21
209.999999469801;0.0001785888671875;225.777630429966;0.40057373046875;22
219.999999444553;0.000160491943359375;235.777630404719;0.400054931640625;23
229.999999419306;0.000164398193359375;245.777630379471;0.399749755859375;24
239.999999394058;0.000163055419921875;255.777630354224;0.39947509765625;25
249.999999368811;0.00015740966796875;265.777630328976;0.399932861328125;26
259.999999343563;0.0001591796875;275.777630303728;0.399932861328125;27
269.999999318316;0.000157379150390625;285.777630278481;0.40020751953125;28
279.999999293068;0.000155548095703125;295.777630253233;0.400390625;29
289.99999926782;0.00016552734375;305.777630227986;0.40032958984375;30
299.999999242573;0.00016094970703125;315.777630202738;0.39984130859375;31
309.999999217325;0.0001513671875;325.777630177491;0.399871826171875;32
319.999999192078;0.00015594482421875;335.777630152243;0.399688720703125;33
329.99999916683;0.00015264892578125;345.777630126995;0.399810791015625;34
339.999999141583;0.000154083251953125;355.777630101748;0.3995361328125;35
349.999999116335;0.000163543701171875;365.7776300765;0.399810791015625;36
359.999999091087;0.000162322998046875;375.777630051253;0.400421142578125;37
369.99999906584;0.000152130126953125;385.777630026005;0.400238037109375;38
379.999999040592;0.0001446533203125;395.777630000758;0.39984130859375;39
389.999999015345;0.000144287109375;405.77762997551;0.399749755859375;40
399.999998990097;0.000146209716796875;415.777629950262;0.400115966796875;41
409.99999896485;0.00014825439453125;425.777629925015;0.399932861328125;42
419.999998939602;0.000152557373046875;435.777629899767;0.399505615234375;43
429.999998914354;0.000157745361328125;445.77762987452;0.400054931640625;44
439.999998889107;0.000143035888671875;455.777629849272;0.399993896484375;45
449.999998863859;0.000154449462890625;465.777629824025;0.399566650390625;46
459.999998838612;0.000157257080078125;475.777629798777;0.3997802734375;47
469.999998813364;0.000150299072265625;485.777629773529;0.40008544921875;48
479.999998788117;0.000137481689453125;495.777629748282;0.400421142578125;49
489.999998762869;0.00013812255859375;505.777629723034;0.39990234375;50
499.999998737621;0.00014459228515625;515.777629697787;0.399688720703125;51
509.999998712374;0.00013873291015625;525.777629672539;0.399322509765625;52
519.999998687126;0.000143707275390625;535.777629647292;0.3997802734375;53
529.999998661879;0.000140106201171875;545.777629622044;0.399749755859375;54
539.999998636631;0.000162078857421875;555.777629596796;0.400390625;55
549.999998611383;0.000143829345703125;565.777629571549;0.399566650390625;56
559.999998586136;0.000137664794921875;575.777629546301;0.399810791015625;57
569.999998560888;0.00013311767578125;585.777629521054;0.399688720703125;58
579.999998535641;0.000139923095703125;595.777629495806;0.3994140625;59
589.999998510393;0.00014532470703125;605.777629470559;0.39990234375;60
599.999998485146;0.000129364013671875;615.777629445311;0.39971923828125;61
609.999998459898;0.000142852783203125;625.777629420063;0.39959716796875;62
619.99999843465;0.00013275146484375;635.777629394816;0.399749755859375;63
629.999998409403;0.000131744384765625;645.777629369568;0.4000244140625;64
639.999998384155;0.0001390380859375;655.777629344321;0.39990234375;65
649.999998358908;0.00012884521484375;665.777629319073;0.39990234375;66
659.99999833366;0.00012548828125;675.777629293826;0.399993896484375;67
669.999998308413;0.0001351318359375;685.777629268578;0.400177001953125;68
679.999998283165;0.000136199951171875;695.77762924333;0.3997802734375;69
689.999998257917;0.00012969970703125;705.777629218083;0.39996337890625;70
699.99999823267;0.00013665771484375;715.777629192835;0.400390625;71
709.999998207422;0.00012481689453125;725.777629167588;0.400604248046875;72
719.999998182175;0.000132232666015625;735.77762914234;0.40008544921875;73
729.999998156927;0.0001292724609375;745.777629117092;0.400482177734375;74
739.99999813168;0.000135986328125;755.777629091845;0.4000244140625;75
749.999998106432;0.000127288818359375;765.777629066597;0.399871826171875;76
759.999998081184;0.00012371826171875;775.77762904135;0.399627685546875;77
769.999998055937;0.000130157470703125;785.777629016102;0.39990234375;78
779.999998030689;0.0001192626953125;795.777628990855;0.4000244140625;79
789.999998005442;0.000128662109375;805.777628965607;0.399658203125;80
799.999997980194;0.000115478515625;815.777628940359;0.39923095703125;81
809.999997954947;0.000114837646484375;825.777628915112;0.3994140625;82
819.999997929699;0.00011895751953125;835.777628889864;0.399810791015625;83
829.999997904451;0.00012078857421875;845.777628864617;0.3997802734375;84
839.999997879204;0.0001270751953125;855.777628839369;0.399627685546875;85
849.999997853956;0.000123565673828125;865.777628814122;0.399993896484375;86
859.999997828709;0.000123504638671875;875.777628788874;0.400238037109375;87
869.999997803461;0.00011322021484375;885.777628763626;0.400299072265625;88
879.999997778214;0.00011505126953125;895.777628738379;0.39996337890625;89
889.999997752966;0.0001177978515625;905.777628713131;0.39990234375;90
899.999997727718;0.000118804931640625;915.777628687884;0.39996337890625;91
909.999997702471;0.00011053466796875;925.777628662636;0.40008544921875;92
919.999997677223;0.000115020751953125;935.777628637389;0.399810791015625;93
929.999997651976;0.00011767578125;945.777628612141;0.399566650390625;94
939.999997626728;0.000121795654296875;955.777628586893;0.399505615234375;95
949.999997601481;0.000113494873046875;965.777628561646;0.39996337890625;96
959.999997576233;0.000123504638671875;975.777628536398;0.399993896484375;97
969.999997550985;0.00011114501953125;985.777628511151;0.39984130859375;98
979.999997525738;0.00010968017578125;995.777628485903;0.400054931640625;99
989.99999750049;0.00010888671875;1005.77762846066;0.40057373046875;100
999.999997475243;0.00010321044921875;1015.77762843541;0.400360107421875;101
1009.99999745;0.000114898681640625;1025.77762841016;0.39996337890625;102
1019.99999742475;0.0001044921875;1035.77762838491;0.399871826171875;103
1029.9999973995;0.0001029052734375;1045.77762835967;0.40020751953125;104
1039.99999737425;0.00010345458984375;1055.77762833442;0.4002685546875;105
1049.999997349;0.000100982666015625;1065.77762830917;0.399993896484375;106
1059.99999732376;0.0001175537109375;1075.77762828392;0.3995361328125;107
1069.99999729851;0.000101470947265625;1085.77762825868;0.399658203125;108
1079.99999727326;0.000113616943359375;1095.77762823343;0.399749755859375;109
1089.99999724801;9.9395751953125E-05;1105.77762820818;0.399688720703125;110
1099.99999722277;0.0001015625;1115.77762818293;0.399932861328125;111
1109.99999719752;0.00010443115234375;1125.77762815768;0.400146484375;112
1119.99999717227;0.000108428955078125;1135.77762813244;0.40008544921875;113
1129.99999714702;9.31396484375E-05;1145.77762810719;0.399932861328125;114
1139.99999712178;9.4268798828125E-05;1155.77762808194;0.39996337890625;115
1149.99999709653;9.7015380859375E-05;1165.77762805669;0.400421142578125;116
1159.99999707128;9.6527099609375E-05;1175.77762803145;0.400299072265625;117
1169.99999704603;9.09423828125E-05;1185.7776280062;0.400115966796875;118
1179.99999702079;9.3994140625E-05;1195.77762798095;0.399749755859375;119
1189.99999699554;9.710693359375E-05;1205.7776279557;0.399627685546875;120
1199.99999697029;9.649658203125E-05;1215.77762793046;0.3994140625;121
1209.99999694504;9.234619140625E-05;1225.77762790521;0.399444580078125;122
1219.9999969198;8.807373046875E-05;1235.77762787996;0.399505615234375;123
1229.99999689455;9.051513671875E-05;1245.77762785471;0.39923095703125;124
1239.9999968693;9.2010498046875E-05;1255.77762782947;0.399658203125;125
1249.99999684405;9.55810546875E-05;1265.77762780422;0.399749755859375;126
1259.99999681881;9.197998046875E-05;1275.77762777897;0.39990234375;127
1269.99999679356;8.7432861328125E-05;1285.77762775372;0.3994140625;128
1279.99999676831;8.990478515625E-05;1295.77762772848;0.399749755859375;129
1289.99999674306;8.8592529296875E-05;1305.77762770323;0.400146484375;130
1299.99999671782;9.124755859375E-05;1315.77762767798;0.400360107421875;131
1309.99999669257;9.405517578125E-05;1325.77762765273;0.399871826171875;132
1319.99999666732;9.332275390625E-05;1335.77762762749;0.399322509765625;133
1329.99999664207;9.0240478515625E-05;1345.77762760224;0.3997802734375;134
1339.99999661683;8.63037109375E-05;1355.77762757699;0.399810791015625;135
1349.99999659158;8.9141845703125E-05;1365.77762755174;0.399627685546875;136
1359.99999656633;8.1634521484375E-05;1375.7776275265;0.400146484375;137
1369.99999654108;8.06884765625E-05;1385.77762750125;0.4000244140625;138
1379.99999651583;7.9559326171875E-05;1395.777627476;0.399749755859375;139
1389.99999649059;8.0535888671875E-05;1405.77762745075;0.399810791015625;140
1399.99999646534;8.89892578125E-05;1415.77762742551;0.399871826171875;141
1409.99999644009;8.70361328125E-05;1425.77762740026;0.399505615234375;142
1419.99999641484;8.087158203125E-05;1435.77762737501;0.39935302734375;143
1429.9999963896;8.87451171875E-05;1445.77762734976;0.399658203125;144
1439.99999636435;8.4686279296875E-05;1455.77762732451;0.39935302734375;145
1449.9999963391;8.0841064453125E-05;1465.77762729927;0.3995361328125;146
1459.99999631385;7.9437255859375E-05;1475.77762727402;0.3995361328125;147
1469.99999628861;8.1573486328125E-05;1485.77762724877;0.399627685546875;148
1479.99999626336;8.1787109375E-05;1495.77762722352;0.399322509765625;149
1489.99999623811;8.2672119140625E-05;1505.77762719828;0.39984130859375;150
1499.99999621286;7.1868896484375E-05;1515.77762717303;0.400115966796875;151
1509.99999618762;7.53173828125E-05;1525.77762714778;0.400115966796875;152
1519.99999616237;7.7911376953125E-05;1535.77762712253;0.3997802734375;153
1529.99999613712;8.3038330078125E-05;1545.77762709729;0.39996337890625;154
1539.99999611187;8.0078125E-05;1555.77762707204;0.39990234375;155
1549.99999608663;8.1756591796875E-05;1565.77762704679;0.39971923828125;156
1559.99999606138;7.45849609375E-05;1575.77762702154;0.399444580078125;157
1569.99999603613;7.318115234375E-05;1585.7776269963;0.399688720703125;158
1579.99999601088;7.7667236328125E-05;1595.77762697105;0.3995361328125;159
1589.99999598564;7.0709228515625E-05;1605.7776269458;0.399749755859375;160
1599.99999596039;7.7545166015625E-05;1615.77762692055;0.399993896484375;161
1609.99999593514;7.843017578125E-05;1625.77762689531;0.40008544921875;162
1619.99999590989;7.3028564453125E-05;1635.77762687006;0.400238037109375;163
1629.99999588465;7.5927734375E-05;1645.77762684481;0.39990234375;164
1639.9999958594;6.9427490234375E-05;1655.77762681956;0.399627685546875;165
1649.99999583415;7.2296142578125E-05;1665.77762679432;0.39996337890625;166
1659.9999958089;7.1563720703125E-05;1675.77762676907;0.39984130859375;167
1669.99999578366;6.6436767578125E-05;1685.77762674382;0.399810791015625;168
1679.99999575841;7.427978515625E-05;1695.77762671857;0.399810791015625;169
1689.99999573316;6.9488525390625E-05;1705.77762669333;0.39959716796875;170
1699.99999570791;6.6680908203125E-05;1715.77762666808;0.400177001953125;171
1709.99999568267;6.7840576171875E-05;1725.77762664283;0.399810791015625;172
1719.99999565742;6.5582275390625E-05;1735.77762661758;0.39984130859375;173
1729.99999563217;6.7840576171875E-05;1745.77762659234;0.40032958984375;174
1739.99999560692;6.2286376953125E-05;1755.77762656709;0.400238037109375;175
1749.99999558167;6.622314453125E-05;1765.77762654184;0.4002685546875;176
1759.99999555643;6.62841796875E-05;1775.77762651659;0.4000244140625;177
1769.99999553118;6.536865234375E-05;1785.77762649135;0.400054931640625;178
1779.99999550593;6.8389892578125E-05;1795.7776264661;0.399749755859375;179
1789.99999548068;6.292724609375E-05;1805.77762644085;0.399871826171875;180
1799.99999545544;6.0821533203125E-05;1815.7776264156;0.39990234375;181
1809.99999543019;6.28662109375E-05;1825.77762639035;0.400390625;182
1819.99999540494;6.2225341796875E-05;1835.77762636511;0.40008544921875;183
1829.99999537969;6.2255859375E-05;1845.77762633986;0.399871826171875;184
1839.99999535445;6.2225341796875E-05;1855.77762631461;0.3997802734375;185
1849.9999953292;6.4910888671875E-05;1865.77762628936;0.399627685546875;186
1859.99999530395;5.8624267578125E-05;1875.77762626412;0.399871826171875;187
1869.9999952787;6.2103271484375E-05;1885.77762623887;0.399810791015625;188
1879.99999525346;5.865478515625E-05;1895.77762621362;0.399871826171875;189
1889.99999522821;6.28662109375E-05;1905.77762618837;0.39947509765625;190
1899.99999520296;6.3873291015625E-05;1915.77762616313;0.399658203125;191
1909.99999517771;5.6854248046875E-05;1925.77762613788;0.400115966796875;192
1919.99999515247;6.3201904296875E-05;1935.77762611263;0.40032958984375;193
1929.99999512722;6.0516357421875E-05;1945.77762608738;0.400146484375;194
1939.99999510197;5.7159423828125E-05;1955.77762606214;0.39990234375;195
1949.99999507672;5.57861328125E-05;1965.77762603689;0.400054931640625;196
1959.99999505148;5.767822265625E-05;1975.77762601164;0.40020751953125;197
1969.99999502623;5.7861328125E-05;1985.77762598639;0.399871826171875;198
1979.99999500098;5.6365966796875E-05;1995.77762596115;0.39984130859375;199
1989.99999497573;5.413818359375E-05;2005.7776259359;0.399993896484375;200
1999.99999495049;5.4351806640625E-05;2015.77762591065;0.39984130859375;201
2009.99999492524;5.6640625E-05;2025.7776258854;0.3994140625;202
2019.99999489999;5.3192138671875E-05;2035.77762586016;0.399932861328125;203
2029.99999487474;5.5633544921875E-05;2045.77762583491;0.400054931640625;204
2039.9999948495;5.6671142578125E-05;2055.77762580966;0.40045166015625;205
2049.99999482425;5.1605224609375E-05;2065.77762578441;0.4002685546875;206
2059.999994799;5.6640625E-05;2075.77762575917;0.399932861328125;207
2069.99999477375;5.767822265625E-05;2085.77762573392;0.3997802734375;208
2079.9999947485;4.7637939453125E-05;2095.77762570867;0.400115966796875;209
2089.99999472326;4.8858642578125E-05;2105.77762568342;0.399688720703125;210
2099.99999469801;5.3253173828125E-05;2115.77762565818;0.399444580078125;211
2109.99999467276;5.18798828125E-05;2125.77762563293;0.39984130859375;212
2119.99999464751;5.1025390625E-05;2135.77762560768;0.399993896484375;213
2129.99999462227;5.1483154296875E-05;2145.77762558243;0.400146484375;214
2139.99999459702;4.7119140625E-05;2155.77762555718;0.399810791015625;215
2149.99999457177;5.438232421875E-05;2165.77762553194;0.399932861328125;216
2159.99999454652;4.779052734375E-05;2175.77762550669;0.400360107421875;217
2169.99999452128;4.6844482421875E-05;2185.77762548144;0.400360107421875;218
2179.99999449603;4.7515869140625E-05;2195.77762545619;0.40032958984375;219
2189.99999447078;4.9285888671875E-05;2205.77762543095;0.400604248046875;220
2199.99999444553;4.7454833984375E-05;2215.7776254057;0.40020751953125;221
2209.99999442029;4.986572265625E-05;2225.77762538045;0.39984130859375;222
2219.99999439504;4.6539306640625E-05;2235.7776253552;0.39984130859375;223
2229.99999436979;4.815673828125E-05;2245.77762532996;0.399658203125;224
2239.99999434454;4.8614501953125E-05;2255.77762530471;0.399566650390625;225
2249.9999943193;4.6966552734375E-05;2265.77762527946;0.3994140625;226
2259.99999429405;4.644775390625E-05;2275.77762525421;0.399627685546875;227
2269.9999942688;4.65087890625E-05;2285.77762522897;0.399810791015625;228
2279.99999424355;4.443359375E-05;2295.77762520372;0.40032958984375;229
2289.99999421831;4.3182373046875E-05;2305.77762517847;0.400299072265625;230
2299.99999419306;4.1168212890625E-05;2315.77762515322;0.400238037109375;231
2309.99999416781;4.266357421875E-05;2325.77762512798;0.3997802734375;232
2319.99999414256;4.69970703125E-05;2335.77762510273;0.399322509765625;233
2329.99999411732;4.1534423828125E-05;2345.77762507748;0.399078369140625;234
2339.99999409207;4.2327880859375E-05;2355.77762505223;0.399627685546875;235
2349.99999406682;4.180908203125E-05;2365.77762502699;0.3997802734375;236
2359.99999404157;4.2236328125E-05;2375.77762500174;0.399749755859375;237
2369.99999401633;4.2755126953125E-05;2385.77762497649;0.3992919921875;238
2379.99999399108;3.9306640625E-05;2395.77762495124;0.399688720703125;239
2389.99999396583;4.4586181640625E-05;2405.777624926;0.399505615234375;240
2399.99999394058;4.30908203125E-05;2415.77762490075;0.399658203125;241
2409.99999391533;4.0924072265625E-05;2425.7776248755;0.39984130859375;242
2419.99999389009;4.046630859375E-05;2435.77762485025;0.399810791015625;243
2429.99999386484;3.99169921875E-05;2445.77762482501;0.399566650390625;244
2439.99999383959;3.94287109375E-05;2455.77762479976;0.39990234375;245
2449.99999381434;3.7841796875E-05;2465.77762477451;0.399932861328125;246
2459.9999937891;3.9398193359375E-05;2475.77762474926;0.39984130859375;247
2469.99999376385;3.9337158203125E-05;2485.77762472401;0.400115966796875;248
2479.9999937386;3.790283203125E-05;2495.77762469877;0.40020751953125;249
2489.99999371335;3.9154052734375E-05;2505.77762467352;0.39984130859375;250
2499.99999368811;3.997802734375E-05;2515.77762464827;0.400238037109375;251
2509.99999366286;3.6865234375E-05;2525.77762462302;0.39996337890625;252
2519.99999363761;4.150390625E-05;2535.77762459778;0.399810791015625;253
2529.99999361236;3.717041015625E-05;2545.77762457253;0.39990234375;254
2539.99999358712;3.79638671875E-05;2555.77762454728;0.4000244140625;255
2549.99999356187;3.729248046875E-05;2565.77762452203;0.39971923828125;256
2559.99999353662;3.7628173828125E-05;2575.77762449679;0.3994140625;257
2569.99999351137;3.948974609375E-05;2585.77762447154;0.399627685546875;258
2579.99999348613;4.5654296875E-05;2595.77762444629;0.399932861328125;259
2589.99999346088;3.656005859375E-05;2605.77762442104;0.3995361328125;260
2599.99999343563;3.668212890625E-05;2615.7776243958;0.399688720703125;261
2609.99999341038;3.4271240234375E-05;2625.77762437055;0.399871826171875;262
2619.99999338514;3.863525390625E-05;2635.7776243453;0.399658203125;263
2629.99999335989;3.6590576171875E-05;2645.77762432005;0.399932861328125;264
2639.99999333464;3.3905029296875E-05;2655.77762429481;0.39996337890625;265
2649.99999330939;3.6712646484375E-05;2665.77762426956;0.400054931640625;266
2659.99999328415;3.7109375E-05;2675.77762424431;0.400238037109375;267
2669.9999932589;3.309326171875E-05;2685.77762421906;0.399932861328125;268
2679.99999323365;3.466796875E-05;2695.77762419382;0.400421142578125;269
2689.9999932084;3.424072265625E-05;2705.77762416857;0.399871826171875;270
2699.99999318316;3.521728515625E-05;2715.77762414332;0.399200439453125;271
2709.99999315791;3.472900390625E-05;2725.77762411807;0.399505615234375;272
2719.99999313266;3.21533203125E-05;2735.77762409283;0.39990234375;273
2729.99999310741;3.3782958984375E-05;2745.77762406758;0.40020751953125;274
2739.99999308217;3.12286376953125E-05;2755.77762404233;0.399566650390625;275
2749.99999305692;3.3087158203125E-05;2765.77762401708;0.399627685546875;276
2759.99999303167;3.3660888671875E-05;2775.77762399184;0.399993896484375;277
2769.99999300642;2.90374755859375E-05;2785.77762396659;0.399810791015625;278
2779.99999298117;3.2354736328125E-05;2795.77762394134;0.400390625;279
2789.99999295593;3.24493408203125E-05;2805.77762391609;0.4005126953125;280
2799.99999293068;3.2275390625E-05;2815.77762389085;0.4000244140625;281
2809.99999290543;3.29620361328125E-05;2825.7776238656;0.399688720703125;282
2819.99999288018;3.369140625E-05;2835.77762384035;0.399383544921875;283
2829.99999285494;2.9058837890625E-05;2845.7776238151;0.399749755859375;284
2839.99999282969;3.2037353515625E-05;2855.77762378985;0.400299072265625;285
2849.99999280444;3.13079833984375E-05;2865.77762376461;0.399993896484375;286
2859.99999277919;3.1591796875E-05;2875.77762373936;0.39935302734375;287
2869.99999275395;3.07769775390625E-05;2885.77762371411;0.399322509765625;288
2879.9999927287;3.3843994140625E-05;2895.77762368886;0.399810791015625;289
2889.99999270345;3.21319580078125E-05;2905.77762366362;0.400360107421875;290
2899.9999926782;3.01544189453125E-05;2915.77762363837;0.39984130859375;291
2909.99999265296;3.118896484375E-05;2925.77762361312;0.39990234375;292
2919.99999262771;2.786865234375E-05;2935.77762358787;0.399810791015625;293
2929.99999260246;3.04168701171875E-05;2945.77762356263;0.399505615234375;294
2939.99999257721;2.8497314453125E-05;2955.77762353738;0.399627685546875;295
2949.99999255197;2.92999267578125E-05;2965.77762351213;0.399993896484375;296
2959.99999252672;2.77313232421875E-05;2975.77762348688;0.400299072265625;297
2969.99999250147;2.9241943359375E-05;2985.77762346164;0.400360107421875;298
2979.99999247622;2.916259765625E-05;2995.77762343639;0.400177001953125;299
2989.99999245098;2.93487548828125E-05;3005.77762341114;0.3994140625;300
2999.99999242573;3.309326171875E-05;3015.77762338589;0.399810791015625;301
3009.99999240048;2.85980224609375E-05;3025.77762336065;0.4000244140625;302
3019.99999237523;2.7716064453125E-05;3035.7776233354;0.400054931640625;303
3029.99999234999;2.4871826171875E-05;3045.77762331015;0.400146484375;304
3039.99999232474;2.82073974609375E-05;3055.7776232849;0.40008544921875;305
3049.99999229949;2.77801513671875E-05;3065.77762325966;0.400360107421875;306
3059.99999227424;2.71575927734375E-05;3075.77762323441;0.39971923828125;307
3069.999992249;2.76885986328125E-05;3085.77762320916;0.3992919921875;308
3079.99999222375;2.72064208984375E-05;3095.77762318391;0.3994140625;309
3089.9999921985;2.66876220703125E-05;3105.77762315867;0.399871826171875;310
3099.99999217325;2.65960693359375E-05;3115.77762313342;0.39984130859375;311
3109.999992148;2.61138916015625E-05;3125.77762310817;0.399627685546875;312
3119.99999212276;2.68341064453125E-05;3135.77762308292;0.3995361328125;313
3129.99999209751;2.6953125E-05;3145.77762305768;0.399383544921875;314
3139.99999207226;2.635498046875E-05;3155.77762303243;0.400177001953125;315
3149.99999204701;2.58758544921875E-05;3165.77762300718;0.39984130859375;316
3159.99999202177;2.767333984375E-05;3175.77762298193;0.39984130859375;317
3169.99999199652;2.4591064453125E-05;3185.77762295668;0.400360107421875;318
3179.99999197127;2.70294189453125E-05;3195.77762293144;0.4002685546875;319
3189.99999194602;2.8570556640625E-05;3205.77762290619;0.400482177734375;320
3199.99999192078;2.613525390625E-05;3215.77762288094;0.400054931640625;321
3209.99999189553;2.56591796875E-05;3225.77762285569;0.3994140625;322
3219.99999187028;2.62603759765625E-05;3235.77762283045;0.399810791015625;323
3229.99999184503;2.95623779296875E-05;3245.7776228052;0.399932861328125;324
3239.99999181979;2.57904052734375E-05;3255.77762277995;0.40069580078125;325
3249.99999179454;2.5164794921875E-05;3265.7776227547;0.39984130859375;326
3259.99999176929;2.58056640625E-05;3275.77762272946;0.39935302734375;327
3269.99999174404;2.71514892578125E-05;3285.77762270421;0.39947509765625;328
3279.9999917188;2.41485595703125E-05;3295.77762267896;0.39959716796875;329
3289.99999169355;2.451171875E-05;3305.77762265371;0.399871826171875;330
3299.9999916683;2.55279541015625E-05;3315.77762262847;0.399993896484375;331
3309.99999164305;2.76031494140625E-05;3325.77762260322;0.400054931640625;332
3319.99999161781;2.51617431640625E-05;3335.77762257797;0.39990234375;333
3329.99999159256;2.43621826171875E-05;3345.77762255272;0.400543212890625;334
3339.99999156731;2.7252197265625E-05;3355.77762252748;0.4000244140625;335
3349.99999154206;2.35504150390625E-05;3365.77762250223;0.399749755859375;336
3359.99999151682;2.406005859375E-05;3375.77762247698;0.3997802734375;337
3369.99999149157;2.44537353515625E-05;3385.77762245173;0.39996337890625;338
3379.99999146632;2.36114501953125E-05;3395.77762242649;0.39947509765625;339
3389.99999144107;2.403564453125E-05;3405.77762240124;0.39959716796875;340
3399.99999141583;2.3199462890625E-05;3415.77762237599;0.39947509765625;341
3409.99999139058;2.44598388671875E-05;3425.77762235074;0.399932861328125;342
3419.99999136533;2.32635498046875E-05;3435.7776223255;0.400421142578125;343
3429.99999134008;2.3919677734375E-05;3445.77762230025;0.399993896484375;344
3439.99999131483;2.6611328125E-05;3455.777622275;0.399688720703125;345
3449.99999128959;2.1978759765625E-05;3465.77762224975;0.39984130859375;346
3459.99999126434;2.35107421875E-05;3475.77762222451;0.400390625;347
3469.99999123909;2.34405517578125E-05;3485.77762219926;0.400299072265625;348
3479.99999121384;2.34222412109375E-05;3495.77762217401;0.399932861328125;349
3489.9999911886;2.1563720703125E-05;3505.77762214876;0.39947509765625;350
3499.99999116335;2.218017578125E-05;3515.77762212351;0.400238037109375;351
3509.9999911381;2.200927734375E-05;3525.77762209827;0.400115966796875;352
3519.99999111285;2.20428466796875E-05;3535.77762207302;0.39990234375;353
3529.99999108761;2.1435546875E-05;3545.77762204777;0.39971923828125;354
3539.99999106236;2.2125244140625E-05;3555.77762202252;0.40069580078125;355
3549.99999103711;2.464599609375E-05;3565.77762199728;0.400299072265625;356
3559.99999101186;2.10906982421875E-05;3575.77762197203;0.39996337890625;357
3569.99999098662;2.22686767578125E-05;3585.77762194678;0.399932861328125;358
3579.99999096137;2.0867919921875E-05;3595.77762192153;0.39984130859375;359
3589.99999093612;2.09991455078125E-05;3605.77762189629;0.39971923828125;360
3599.99999091087;2.225341796875E-05;3615.77762187104;0.399688720703125;361
3609.99999088563;2.205810546875E-05;3625.77762184579;0.399932861328125;362
3619.99999086038;2.3870849609375E-05;3635.77762182054;0.3995361328125;363
3629.99999083513;2.28271484375E-05;3645.7776217953;0.399688720703125;364
3639.99999080988;2.12860107421875E-05;3655.77762177005;0.4002685546875;365
3649.99999078464;2.53387451171875E-05;3665.7776217448;0.399871826171875;366
3659.99999075939;2.174072265625E-05;3675.77762171955;0.399688720703125;367
3669.99999073414;2.19696044921875E-05;3685.77762169431;0.39910888671875;368
3679.99999070889;2.18231201171875E-05;3695.77762166906;0.399627685546875;369
3689.99999068365;2.33123779296875E-05;3705.77762164381;0.39996337890625;370
3699.9999906584;2.09716796875E-05;3715.77762161856;0.39990234375;371
3709.99999063315;2.19482421875E-05;3725.77762159332;0.399200439453125;372
3719.9999906079;2.00469970703125E-05;3735.77762156807;0.39971923828125;373
3729.99999058266;2.08099365234375E-05;3745.77762154282;0.400115966796875;374
3739.99999055741;2.421875E-05;3755.77762151757;0.40020751953125;375
3749.99999053216;1.95648193359375E-05;3765.77762149233;0.4000244140625;376
3759.99999050691;1.959228515625E-05;3775.77762146708;0.39971923828125;377
3769.99999048167;2.069091796875E-05;3785.77762144183;0.40008544921875;378
3779.99999045642;2.2894287109375E-05;3795.77762141658;0.4000244140625;379
3789.99999043117;2.03338623046875E-05;3805.77762139134;0.39935302734375;380
3799.99999040592;2.01171875E-05;3815.77762136609;0.399993896484375;381
3809.99999038067;2.13592529296875E-05;3825.77762134084;0.400115966796875;382
3819.99999035543;2.291259765625E-05;3835.77762131559;0.3997802734375;383
3829.99999033018;2.132568359375E-05;3845.77762129035;0.400238037109375;384
3839.99999030493;2.15179443359375E-05;3855.7776212651;0.400543212890625;385
3849.99999027968;2.07183837890625E-05;3865.77762123985;0.400238037109375;386
3859.99999025444;2.1142578125E-05;3875.7776212146;0.400360107421875;387
