Corrected time (s);WE(1).Current (A);Time (s);WE(1).Potential (V);Index
0;0.000326416015625;15.792824960127;0.400238037109375;1
9.99999997475243;0.000358612060546875;25.7928249348794;0.399932861328125;2
19.9999999495049;0.00031317138671875;35.7928249096318;0.40008544921875;3
29.9999999242573;0.000293701171875;45.7928248843842;0.400115966796875;4
39.9999998990097;0.0003114013671875;55.7928248591367;0.399658203125;5
49.9999998737621;0.000308074951171875;65.7928248338891;0.39898681640625;6
59.9999998485146;0.000301849365234375;75.7928248086415;0.3997802734375;7
69.999999823267;0.00027301025390625;85.7928247833939;0.400146484375;8
79.9999997980194;0.000266448974609375;95.7928247581464;0.399871826171875;9
89.9999997727718;0.0002755126953125;105.792824732899;0.39959716796875;10
99.9999997475243;0.000286346435546875;115.792824707651;0.399993896484375;11
109.999999722277;0.000322174072265625;125.792824682404;0.3995361328125;12
119.999999697029;0.00025408935546875;135.792824657156;0.399810791015625;13
129.999999671782;0.00027593994140625;145.792824631909;0.399627685546875;14
139.999999646534;0.000280364990234375;155.792824606661;0.3995361328125;15
149.999999621286;0.00027093505859375;165.792824581413;0.39996337890625;16
159.999999596039;0.000255279541015625;175.792824556166;0.3997802734375;17
169.999999570791;0.0002889404296875;185.792824530918;0.399993896484375;18
179.999999545544;0.0002449951171875;195.792824505671;0.39959716796875;19
189.999999520296;0.000265289306640625;205.792824480423;0.399658203125;20
199.999999495049;0.00027130126953125;215.792824455175;0.399932861328125;21
209.999999469801;0.000259552001953125;225.792824429928;0.3995361328125;22
219.999999444553;0.000264862060546875;235.79282440468;0.400054931640625;23
229.999999419306;0.000234283447265625;245.792824379433;0.399993896484375;24
239.999999394058;0.000229736328125;255.792824354185;0.399658203125;25
249.999999368811;0.000242645263671875;265.792824328938;0.4002685546875;26
259.999999343563;0.000216552734375;275.79282430369;0.400146484375;27
269.999999318316;0.00021478271484375;285.792824278442;0.39984130859375;28
279.999999293068;0.00023419189453125;295.792824253195;0.39971923828125;29
289.99999926782;0.00021923828125;305.792824227947;0.39984130859375;30
299.999999242573;0.00021453857421875;315.7928242027;0.3992919921875;31
309.999999217325;0.000236968994140625;325.792824177452;0.399932861328125;32
319.999999192078;0.000209075927734375;335.792824152205;0.400146484375;33
329.99999916683;0.0002081298828125;345.792824126957;0.400238037109375;34
339.999999141583;0.000241729736328125;355.792824101709;0.399871826171875;35
349.999999116335;0.000242218017578125;365.792824076462;0.399444580078125;36
359.999999091087;0.000201690673828125;375.792824051214;0.399810791015625;37
369.99999906584;0.000216644287109375;385.792824025967;0.3997802734375;38
379.999999040592;0.000196258544921875;395.792824000719;0.40045166015625;39
389.999999015345;0.000232330322265625;405.792823975472;0.399993896484375;40
399.999998990097;0.0002021484375;415.792823950224;0.399871826171875;41
409.99999896485;0.00019451904296875;425.792823924976;0.399993896484375;42
419.999998939602;0.000199249267578125;435.792823899729;0.40057373046875;43
429.999998914354;0.00021124267578125;445.792823874481;0.40020751953125;44
439.999998889107;0.000208221435546875;455.792823849234;0.39990234375;45
449.999998863859;0.000227081298828125;465.792823823986;0.400115966796875;46
459.999998838612;0.0001944580078125;475.792823798739;0.39971923828125;47
469.999998813364;0.00018463134765625;485.792823773491;0.399627685546875;48
479.999998788117;0.00019232177734375;495.792823748243;0.4000244140625;49
489.999998762869;0.000171600341796875;505.792823722996;0.4002685546875;50
499.999998737621;0.000166351318359375;515.792823697748;0.400054931640625;51
509.999998712374;0.000165618896484375;525.792823672501;0.3994140625;52
519.999998687126;0.000168060302734375;535.792823647253;0.399932861328125;53
529.999998661879;0.000207672119140625;545.792823622006;0.40008544921875;54
539.999998636631;0.0001822509765625;555.792823596758;0.399749755859375;55
549.999998611383;0.0001995849609375;565.79282357151;0.39971923828125;56
559.999998586136;0.000199798583984375;575.792823546263;0.39971923828125;57
569.999998560888;0.000165496826171875;585.792823521015;0.3994140625;58
579.999998535641;0.0001673583984375;595.792823495768;0.399810791015625;59
589.999998510393;0.000174957275390625;605.79282347052;0.39990234375;60
599.999998485146;0.000166229248046875;615.792823445273;0.399810791015625;61
609.999998459898;0.000166168212890625;625.792823420025;0.400390625;62
619.99999843465;0.00016705322265625;635.792823394777;0.40020751953125;63
629.999998409403;0.00015277099609375;645.79282336953;0.399810791015625;64
639.999998384155;0.00016400146484375;655.792823344282;0.4002685546875;65
649.999998358908;0.000144775390625;665.792823319035;0.400177001953125;66
659.99999833366;0.0001593017578125;675.792823293787;0.4002685546875;67
669.999998308413;0.000151519775390625;685.79282326854;0.399688720703125;68
679.999998283165;0.0001748046875;695.792823243292;0.4000244140625;69
689.999998257917;0.000161102294921875;705.792823218044;0.39971923828125;70
699.99999823267;0.00016522216796875;715.792823192797;0.399658203125;71
709.999998207422;0.0001572265625;725.792823167549;0.4000244140625;72
719.999998182175;0.00015338134765625;735.792823142302;0.399627685546875;73
729.999998156927;0.000153350830078125;745.792823117054;0.399871826171875;74
739.99999813168;0.000155181884765625;755.792823091807;0.399993896484375;75
749.999998106432;0.000160125732421875;765.792823066559;0.4002685546875;76
759.999998081184;0.00013165283203125;775.792823041311;0.39971923828125;77
769.999998055937;0.0001431884765625;785.792823016064;0.4000244140625;78
779.999998030689;0.00013629150390625;795.792822990816;0.399993896484375;79
789.999998005442;0.000134613037109375;805.792822965569;0.40032958984375;80
799.999997980194;0.00013653564453125;815.792822940321;0.399810791015625;81
809.999997954947;0.000144439697265625;825.792822915074;0.399688720703125;82
819.999997929699;0.000142486572265625;835.792822889826;0.400238037109375;83
829.999997904451;0.000138275146484375;845.792822864578;0.39996337890625;84
839.999997879204;0.000134613037109375;855.792822839331;0.400482177734375;85
849.999997853956;0.000134033203125;865.792822814083;0.39947509765625;86
859.999997828709;0.000134918212890625;875.792822788836;0.39990234375;87
869.999997803461;0.000138031005859375;885.792822763588;0.400238037109375;88
879.999997778214;0.0001485595703125;895.792822738341;0.400146484375;89
889.999997752966;0.000145111083984375;905.792822713093;0.4002685546875;90
899.999997727718;0.0001326904296875;915.792822687845;0.399627685546875;91
909.999997702471;0.0001319580078125;925.792822662598;0.400299072265625;92
919.999997677223;0.0001319580078125;935.79282263735;0.39984130859375;93
929.999997651976;0.000130462646484375;945.792822612103;0.400238037109375;94
939.999997626728;0.0001229248046875;955.792822586855;0.40020751953125;95
949.999997601481;0.000134552001953125;965.792822561608;0.400146484375;96
959.999997576233;0.000124542236328125;975.79282253636;0.399993896484375;97
969.999997550985;0.000115692138671875;985.792822511112;0.39990234375;98
979.999997525738;0.00011895751953125;995.792822485865;0.400421142578125;99
989.99999750049;0.000111846923828125;1005.79282246062;0.400115966796875;100
999.999997475243;0.00011627197265625;1015.79282243537;0.399993896484375;101
1009.99999745;0.000113616943359375;1025.79282241012;0.40008544921875;102
1019.99999742475;0.000110321044921875;1035.79282238487;0.399932861328125;103
1029.9999973995;0.000110931396484375;1045.79282235963;0.4002685546875;104
1039.99999737425;0.00011553955078125;1055.79282233438;0.40008544921875;105
1049.999997349;0.00012188720703125;1065.79282230913;0.3997802734375;106
1059.99999732376;0.0001094970703125;1075.79282228388;0.40008544921875;107
1069.99999729851;0.00010797119140625;1085.79282225864;0.39984130859375;108
1079.99999727326;0.000117706298828125;1095.79282223339;0.39947509765625;109
1089.99999724801;0.000105804443359375;1105.79282220814;0.399810791015625;110
1099.99999722277;0.000107269287109375;1115.79282218289;0.399871826171875;111
1109.99999719752;0.000105621337890625;1125.79282215765;0.399871826171875;112
1119.99999717227;0.000108062744140625;1135.7928221324;0.39971923828125;113
1129.99999714702;0.00011419677734375;1145.79282210715;0.400390625;114
1139.99999712178;0.0001041259765625;1155.7928220819;0.399871826171875;115
1149.99999709653;0.000105255126953125;1165.79282205666;0.399658203125;116
1159.99999707128;0.000100372314453125;1175.79282203141;0.39971923828125;117
1169.99999704603;0.00010723876953125;1185.79282200616;0.40020751953125;118
1179.99999702079;0.000104248046875;1195.79282198091;0.40045166015625;119
1189.99999699554;0.000103302001953125;1205.79282195567;0.399871826171875;120
1199.99999697029;0.000107696533203125;1215.79282193042;0.399749755859375;121
1209.99999694504;9.9090576171875E-05;1225.79282190517;0.399993896484375;122
1219.9999969198;0.0001075439453125;1235.79282187992;0.4002685546875;123
1229.99999689455;7.1624755859375E-05;1245.79282185468;0.400482177734375;124
1239.9999968693;0.0001142578125;1255.79282182943;0.399932861328125;125
1249.99999684405;0.000115478515625;1265.79282180418;0.40020751953125;126
1259.99999681881;0.000113861083984375;1275.79282177893;0.39990234375;127
1269.99999679356;0.00011065673828125;1285.79282175369;0.399200439453125;128
1279.99999676831;0.000107879638671875;1295.79282172844;0.3997802734375;129
1289.99999674306;0.0001094970703125;1305.79282170319;0.400299072265625;130
1299.99999671782;0.000119415283203125;1315.79282167794;0.39990234375;131
1309.99999669257;0.000101654052734375;1325.79282165269;0.40020751953125;132
1319.99999666732;0.00010968017578125;1335.79282162745;0.400238037109375;133
1329.99999664207;9.5550537109375E-05;1345.7928216022;0.399932861328125;134
1339.99999661683;0.000102569580078125;1355.79282157695;0.400360107421875;135
1349.99999659158;0.000105743408203125;1365.7928215517;0.399993896484375;136
1359.99999656633;0.000107940673828125;1375.79282152646;0.399749755859375;137
1369.99999654108;9.8480224609375E-05;1385.79282150121;0.3995361328125;138
1379.99999651583;0.0001075439453125;1395.79282147596;0.399932861328125;139
1389.99999649059;9.1400146484375E-05;1405.79282145071;0.399566650390625;140
1399.99999646534;8.8165283203125E-05;1415.79282142547;0.39947509765625;141
1409.99999644009;8.9569091796875E-05;1425.79282140022;0.399932861328125;142
1419.99999641484;8.8592529296875E-05;1435.79282137497;0.40008544921875;143
1429.9999963896;8.5418701171875E-05;1445.79282134972;0.3994140625;144
1439.99999636435;8.7158203125E-05;1455.79282132448;0.399871826171875;145
1449.9999963391;8.343505859375E-05;1465.79282129923;0.39947509765625;146
1459.99999631385;8.465576171875E-05;1475.79282127398;0.3994140625;147
1469.99999628861;8.5784912109375E-05;1485.79282124873;0.399993896484375;148
1479.99999626336;8.10546875E-05;1495.79282122349;0.4000244140625;149
1489.99999623811;8.1878662109375E-05;1505.79282119824;0.399444580078125;150
1499.99999621286;8.19091796875E-05;1515.79282117299;0.39923095703125;151
1509.99999618762;8.3892822265625E-05;1525.79282114774;0.3997802734375;152
1519.99999616237;7.92236328125E-05;1535.7928211225;0.399566650390625;153
1529.99999613712;8.251953125E-05;1545.79282109725;0.399658203125;154
1539.99999611187;7.9620361328125E-05;1555.792821072;0.39935302734375;155
1549.99999608663;8.2183837890625E-05;1565.79282104675;0.3994140625;156
1559.99999606138;7.71484375E-05;1575.79282102151;0.399871826171875;157
1569.99999603613;8.06884765625E-05;1585.79282099626;0.39996337890625;158
1579.99999601088;8.4320068359375E-05;1595.79282097101;0.3997802734375;159
1589.99999598564;8.233642578125E-05;1605.79282094576;0.40045166015625;160
1599.99999596039;8.416748046875E-05;1615.79282092052;0.400146484375;161
1609.99999593514;7.92236328125E-05;1625.79282089527;0.39971923828125;162
1619.99999590989;7.647705078125E-05;1635.79282087002;0.399810791015625;163
1629.99999588465;8.0291748046875E-05;1645.79282084477;0.399871826171875;164
1639.9999958594;7.9437255859375E-05;1655.79282081952;0.400299072265625;165
1649.99999583415;7.8033447265625E-05;1665.79282079428;0.399871826171875;166
1659.9999958089;7.55615234375E-05;1675.79282076903;0.39971923828125;167
1669.99999578366;7.7239990234375E-05;1685.79282074378;0.399993896484375;168
1679.99999575841;7.16552734375E-05;1695.79282071853;0.3994140625;169
1689.99999573316;7.48291015625E-05;1705.79282069329;0.399444580078125;170
1699.99999570791;8.5662841796875E-05;1715.79282066804;0.4002685546875;171
1709.99999568267;7.421875E-05;1725.79282064279;0.400054931640625;172
